BEGIN_SCAN_DATA
	FORMAT=CC-Export V1.9                  
	FILE_CREATION_DATE=26-Jul-2022 10:36:50
	LAST_MODIFIED=26-Jul-2022 10:36:50
	BEGIN_SCAN  1
		TASK_NAME=tba PDD Profiles
		PROGRAM=WaterTankScans
		COMMENT=5x X
		MEAS_DATE=09-Feb-2021 16:43:41
		LINAC=TRUEBEAMSN4791
		MODALITY=X
		ISOCENTER=1000.00
		INPLANE_AXIS=Y
		CROSSPLANE_AXIS=X
		DEPTH_AXIS=Depth
		INPLANE_AXIS_DIR=TARGET_GUN
		CROSSPLANE_AXIS_DIR=LEFT_RIGHT
		DEPTH_AXIS_DIR=UP_DOWN
		ENERGY=6.00
		NOMINAL_DMAX=15.00
		SSD=900.00
		SCD=450.00
		WEDGE_ANGLE=0.00
		FIELD_INPLANE=400.00
		FIELD_CROSSPLANE=400.00
		FIELD_TYPE=RECTANGULAR
		GANTRY=0.00
		GANTRY_UPRIGHT_POSITION=0
		GANTRY_ROTATION=CW
		COLL_ANGLE=0.00
		COLL_OFFSET_INPLANE=0.00
		COLL_OFFSET_CROSSPLANE=0.00
		SCAN_DEVICE=BeamScan
		SCAN_DEVICE_SETUP=BARA_LEFT_RIGHT
		ELECTROMETER=BeamScan
		RANGE_FIELD=LOW
		RANGE_REFERENCE=MEDIUM
		DETECTOR=THIMBLE_CHAMBER
		DETECTOR_SUBCODE=SEMIFLEX
		DETECTOR_RADIUS=2.40
		DETECTOR_NAME=PTW 31021 Semiflex 3D (1)
		DETECTOR_SN=142316
		DETECTOR_CALIBRATION=588000000.00
		DETECTOR_IS_CALIBRATED=1
		DETECTOR_REFERENCE=THIMBLE_CHAMBER
		DETECTOR_REFERENCE_SUBCODE=SEMIFLEX
		DETECTOR_REFERENCE_RADIUS=2.75
		DETECTOR_REFERENCE_NAME=PTW 31010 Semiflex (1)
		DETECTOR_REFERENCE_SN=—
		DETECTOR_REFERENCE_IS_CALIBRATED=0
		DETECTOR_REFERENCE_CALIBRATION=303000000.00
		DETECTOR_HV=400.0
		DETECTOR_REFERENCE_HV=400.0
		DETECTOR_ORIENTATION=HORIZONTAL
		FILTER=FFF
		SCAN_SPEED_PROFILE=12.50
		SCAN_PROF_SPEED_DEP=DEPTH
		SCAN_SPEED_PDD=0.00
		SCAN_PDD_SPEED_DEP=ENERGY
		DETECTOR_TYPE=T31021
		REF_FIELD_DEPTH=300.00
		REF_FIELD_DEFINED=ISOCENTER
		REF_FIELD_INPLANE=100.00
		REF_FIELD_CROSSPLANE=100.00
		REF_SCAN_POSITIONS=-85.00;-84.00;-83.00;-82.00;-81.00;-80.00;-79.00;-78.00;-77.00;-76.00;-75.00;-74.00;-73.00;-72.00;-71.00;-70.00;-69.00;-68.00;-67.00;-66.00;-65.00;-64.00;-63.00;-62.00;-61.00;-60.00;-59.00;-58.00;-57.00;-56.00;-55.00;-54.00;-53.00;-52.00;-51.00;-50.00;-49.00;-48.00;-47.00;-46.00;-45.00;-44.00;-43.00;-42.00;-41.00;-40.00;-39.00;-38.00;-37.00;-36.00;-35.00;-34.00;-33.00;-32.00;-31.00;-30.00;-29.00;-28.00;-27.00;-26.00;-25.00;-24.00;-23.00;-22.00;-21.00;-20.00;-19.00;-18.00;-17.00;-16.00;-15.00;-14.00;-13.00;-12.00;-11.00;-10.00;-9.00;-8.00;-7.00;-6.00;-5.00;-4.00;-3.00;-2.00;-1.00;0.00;1.00;2.00;3.00;4.00;5.00;6.00;7.00;8.00;9.00;10.00;11.00;12.00;13.00;14.00;15.00;16.00;17.00;18.00;19.00;20.00;21.00;22.00;23.00;24.00;25.00;26.00;27.00;28.00;29.00;30.00;31.00;32.00;33.00;34.00;35.00;36.00;37.00;38.00;39.00;40.00;41.00;42.00;43.00;44.00;45.00;46.00;47.00;48.00;49.00;50.00;51.00;52.00;53.00;54.00;55.00;56.00;57.00;58.00;59.00;60.00;61.00;62.00;63.00;64.00;65.00;66.00;67.00;68.00;69.00;70.00;71.00;72.00;73.00;74.00;75.00;76.00;77.00;78.00;79.00;80.00;81.00;82.00;83.00;84.00;85.00;
		REF_OVERSCAN_FACTOR=1.00
		SCAN_CURVETYPE=CROSSPLANE_PROFILE
		SCAN_DEPTH=15.00
		SCAN_OFFAXIS_INPLANE=0.00
		SCAN_OFFAXIS_CROSSPLANE=0.00
		SCAN_ANGLE=0.00
		SCAN_DIAGONAL=NOT_DIAGONAL
		SCAN_DIRECTION=POSITIVE
		MEAS_MEDIUM=WATER
		MEAS_PRESET=MEAS_CONTINUOUS_REFERENCE_SCAN
		MEAS_TIME=0.080
		MEAS_UNIT=A.U.
		INCLINATION_ANGLE=0.00
		PRESSURE=1013.25
		TEMPERATURE=20.00
		NORM_TEMPERATURE=20.00
		CORRECTION_FACTOR=1.0000
		EXPECTED_MAX_DOSE_RATE=3.00
		EPOM_DEPTH_SHIFT=0.2
		EPOM_MODE=SHIFT_PROTOCOL
		CORRECTIONS=SMOOTHED_CORR;SYMMETRY_CORR;INTERPOLATED_CORR;
		BEGIN_DATA
			-214.00		55.168E-03
			-213.50		55.769E-03
			-213.00		56.371E-03
			-212.50		56.938E-03
			-212.00		57.505E-03
			-211.50		58.017E-03
			-211.00		58.528E-03
			-210.50		59.145E-03
			-210.00		59.763E-03
			-209.50		60.460E-03
			-209.00		61.157E-03
			-208.50		61.845E-03
			-208.00		62.534E-03
			-207.50		63.267E-03
			-207.00		63.999E-03
			-206.50		64.858E-03
			-206.00		65.717E-03
			-205.50		66.436E-03
			-205.00		67.155E-03
			-204.50		68.000E-03
			-204.00		68.845E-03
			-203.50		69.685E-03
			-203.00		70.525E-03
			-202.50		71.364E-03
			-202.00		72.203E-03
			-201.50		73.234E-03
			-201.00		74.264E-03
			-200.50		75.296E-03
			-200.00		76.329E-03
			-199.50		77.540E-03
			-199.00		78.751E-03
			-198.50		80.127E-03
			-198.00		81.503E-03
			-197.50		83.021E-03
			-197.00		84.539E-03
			-196.50		86.369E-03
			-196.00		88.198E-03
			-195.50		90.408E-03
			-195.00		92.618E-03
			-194.50		95.146E-03
			-194.00		97.674E-03
			-193.50		100.61E-03
			-193.00		103.54E-03
			-192.50		107.11E-03
			-192.00		110.67E-03
			-191.50		115.48E-03
			-191.00		120.29E-03
			-190.50		126.81E-03
			-190.00		133.33E-03
			-189.50		142.61E-03
			-189.00		151.88E-03
			-188.50		165.78E-03
			-188.00		179.67E-03
			-187.50		205.58E-03
			-187.00		231.49E-03
			-186.50		275.91E-03
			-186.00		320.34E-03
			-185.50		376.56E-03
			-185.00		432.77E-03
			-184.50		498.51E-03
			-184.00		564.25E-03
			-183.50		637.81E-03
			-183.00		711.37E-03
			-182.50		784.45E-03
			-182.00		857.53E-03
			-181.50		921.57E-03
			-181.00		985.61E-03
			-180.50		1.0383E+00
			-180.00		1.0909E+00
			-179.50		1.1301E+00
			-179.00		1.1693E+00
			-178.50		1.1907E+00
			-178.00		1.2121E+00
			-177.50		1.2248E+00
			-177.00		1.2376E+00
			-176.50		1.2468E+00
			-176.00		1.2560E+00
			-175.50		1.2631E+00
			-175.00		1.2703E+00
			-174.50		1.2765E+00
			-174.00		1.2826E+00
			-173.50		1.2873E+00
			-173.00		1.2919E+00
			-172.50		1.2959E+00
			-172.00		1.2998E+00
			-171.50		1.3035E+00
			-171.00		1.3072E+00
			-170.50		1.3108E+00
			-170.00		1.3144E+00
			-169.50		1.3178E+00
			-169.00		1.3213E+00
			-168.50		1.3247E+00
			-168.00		1.3282E+00
			-167.50		1.3315E+00
			-167.00		1.3348E+00
			-166.50		1.3380E+00
			-166.00		1.3412E+00
			-165.50		1.3443E+00
			-165.00		1.3475E+00
			-164.50		1.3505E+00
			-164.00		1.3535E+00
			-163.50		1.3565E+00
			-163.00		1.3594E+00
			-162.50		1.3623E+00
			-162.00		1.3652E+00
			-161.50		1.3681E+00
			-161.00		1.3710E+00
			-160.50		1.3739E+00
			-160.00		1.3767E+00
			-159.50		1.3796E+00
			-159.00		1.3825E+00
			-158.50		1.3854E+00
			-158.00		1.3883E+00
			-157.50		1.3911E+00
			-157.00		1.3940E+00
			-156.50		1.3969E+00
			-156.00		1.3997E+00
			-155.50		1.4025E+00
			-155.00		1.4053E+00
			-154.50		1.4081E+00
			-154.00		1.4110E+00
			-153.50		1.4139E+00
			-153.00		1.4168E+00
			-152.50		1.4197E+00
			-152.00		1.4227E+00
			-151.50		1.4255E+00
			-151.00		1.4284E+00
			-150.50		1.4313E+00
			-150.00		1.4342E+00
			-149.50		1.4371E+00
			-149.00		1.4400E+00
			-148.50		1.4429E+00
			-148.00		1.4458E+00
			-147.50		1.4487E+00
			-147.00		1.4516E+00
			-146.50		1.4544E+00
			-146.00		1.4572E+00
			-145.50		1.4599E+00
			-145.00		1.4627E+00
			-144.50		1.4655E+00
			-144.00		1.4683E+00
			-143.50		1.4711E+00
			-143.00		1.4738E+00
			-142.50		1.4765E+00
			-142.00		1.4793E+00
			-141.50		1.4822E+00
			-141.00		1.4852E+00
			-140.50		1.4883E+00
			-140.00		1.4914E+00
			-139.50		1.4946E+00
			-139.00		1.4978E+00
			-138.50		1.5010E+00
			-138.00		1.5042E+00
			-137.50		1.5074E+00
			-137.00		1.5106E+00
			-136.50		1.5136E+00
			-136.00		1.5166E+00
			-135.50		1.5196E+00
			-135.00		1.5226E+00
			-134.50		1.5256E+00
			-134.00		1.5285E+00
			-133.50		1.5314E+00
			-133.00		1.5343E+00
			-132.50		1.5373E+00
			-132.00		1.5404E+00
			-131.50		1.5434E+00
			-131.00		1.5465E+00
			-130.50		1.5495E+00
			-130.00		1.5525E+00
			-129.50		1.5554E+00
			-129.00		1.5584E+00
			-128.50		1.5613E+00
			-128.00		1.5642E+00
			-127.50		1.5672E+00
			-127.00		1.5702E+00
			-126.50		1.5733E+00
			-126.00		1.5765E+00
			-125.50		1.5797E+00
			-125.00		1.5828E+00
			-124.50		1.5859E+00
			-124.00		1.5890E+00
			-123.50		1.5921E+00
			-123.00		1.5951E+00
			-122.50		1.5982E+00
			-122.00		1.6012E+00
			-121.50		1.6043E+00
			-121.00		1.6075E+00
			-120.50		1.6106E+00
			-120.00		1.6137E+00
			-119.50		1.6169E+00
			-119.00		1.6200E+00
			-118.50		1.6231E+00
			-118.00		1.6263E+00
			-117.50		1.6295E+00
			-117.00		1.6327E+00
			-116.50		1.6359E+00
			-116.00		1.6392E+00
			-115.50		1.6424E+00
			-115.00		1.6457E+00
			-114.50		1.6489E+00
			-114.00		1.6522E+00
			-113.50		1.6553E+00
			-113.00		1.6584E+00
			-112.50		1.6615E+00
			-112.00		1.6646E+00
			-111.50		1.6677E+00
			-111.00		1.6708E+00
			-110.50		1.6739E+00
			-110.00		1.6771E+00
			-109.50		1.6804E+00
			-109.00		1.6837E+00
			-108.50		1.6869E+00
			-108.00		1.6902E+00
			-107.50		1.6935E+00
			-107.00		1.6969E+00
			-106.50		1.7004E+00
			-106.00		1.7039E+00
			-105.50		1.7076E+00
			-105.00		1.7114E+00
			-104.50		1.7150E+00
			-104.00		1.7186E+00
			-103.50		1.7220E+00
			-103.00		1.7253E+00
			-102.50		1.7285E+00
			-102.00		1.7316E+00
			-101.50		1.7347E+00
			-101.00		1.7377E+00
			-100.50		1.7409E+00
			-100.00		1.7441E+00
			-99.50		1.7476E+00
			-99.00		1.7511E+00
			-98.50		1.7546E+00
			-98.00		1.7581E+00
			-97.50		1.7617E+00
			-97.00		1.7652E+00
			-96.50		1.7687E+00
			-96.00		1.7721E+00
			-95.50		1.7755E+00
			-95.00		1.7789E+00
			-94.50		1.7824E+00
			-94.00		1.7859E+00
			-93.50		1.7894E+00
			-93.00		1.7930E+00
			-92.50		1.7965E+00
			-92.00		1.8000E+00
			-91.50		1.8034E+00
			-91.00		1.8069E+00
			-90.50		1.8103E+00
			-90.00		1.8136E+00
			-89.50		1.8170E+00
			-89.00		1.8204E+00
			-88.50		1.8240E+00
			-88.00		1.8275E+00
			-87.50		1.8311E+00
			-87.00		1.8347E+00
			-86.50		1.8384E+00
			-86.00		1.8421E+00
			-85.50		1.8458E+00
			-85.00		1.8494E+00
			-84.50		1.8530E+00
			-84.00		1.8566E+00
			-83.50		1.8602E+00
			-83.00		1.8638E+00
			-82.50		1.8672E+00
			-82.00		1.8707E+00
			-81.50		1.8742E+00
			-81.00		1.8778E+00
			-80.50		1.8815E+00
			-80.00		1.8852E+00
			-79.50		1.8891E+00
			-79.00		1.8929E+00
			-78.50		1.8967E+00
			-78.00		1.9006E+00
			-77.50		1.9042E+00
			-77.00		1.9078E+00
			-76.50		1.9114E+00
			-76.00		1.9149E+00
			-75.50		1.9185E+00
			-75.00		1.9221E+00
			-74.50		1.9258E+00
			-74.00		1.9295E+00
			-73.50		1.9332E+00
			-73.00		1.9370E+00
			-72.50		1.9406E+00
			-72.00		1.9443E+00
			-71.50		1.9480E+00
			-71.00		1.9516E+00
			-70.50		1.9553E+00
			-70.00		1.9589E+00
			-69.50		1.9625E+00
			-69.00		1.9662E+00
			-68.50		1.9699E+00
			-68.00		1.9737E+00
			-67.50		1.9775E+00
			-67.00		1.9812E+00
			-66.50		1.9849E+00
			-66.00		1.9886E+00
			-65.50		1.9924E+00
			-65.00		1.9962E+00
			-64.50		2.0001E+00
			-64.00		2.0041E+00
			-63.50		2.0082E+00
			-63.00		2.0122E+00
			-62.50		2.0162E+00
			-62.00		2.0202E+00
			-61.50		2.0240E+00
			-61.00		2.0279E+00
			-60.50		2.0316E+00
			-60.00		2.0353E+00
			-59.50		2.0389E+00
			-59.00		2.0425E+00
			-58.50		2.0462E+00
			-58.00		2.0499E+00
			-57.50		2.0536E+00
			-57.00		2.0574E+00
			-56.50		2.0612E+00
			-56.00		2.0650E+00
			-55.50		2.0689E+00
			-55.00		2.0728E+00
			-54.50		2.0767E+00
			-54.00		2.0807E+00
			-53.50		2.0847E+00
			-53.00		2.0887E+00
			-52.50		2.0926E+00
			-52.00		2.0966E+00
			-51.50		2.1006E+00
			-51.00		2.1046E+00
			-50.50		2.1086E+00
			-50.00		2.1126E+00
			-49.50		2.1163E+00
			-49.00		2.1200E+00
			-48.50		2.1235E+00
			-48.00		2.1270E+00
			-47.50		2.1305E+00
			-47.00		2.1339E+00
			-46.50		2.1374E+00
			-46.00		2.1408E+00
			-45.50		2.1444E+00
			-45.00		2.1481E+00
			-44.50		2.1518E+00
			-44.00		2.1555E+00
			-43.50		2.1593E+00
			-43.00		2.1631E+00
			-42.50		2.1670E+00
			-42.00		2.1709E+00
			-41.50		2.1748E+00
			-41.00		2.1788E+00
			-40.50		2.1825E+00
			-40.00		2.1863E+00
			-39.50		2.1899E+00
			-39.00		2.1936E+00
			-38.50		2.1971E+00
			-38.00		2.2006E+00
			-37.50		2.2041E+00
			-37.00		2.2075E+00
			-36.50		2.2109E+00
			-36.00		2.2143E+00
			-35.50		2.2178E+00
			-35.00		2.2214E+00
			-34.50		2.2250E+00
			-34.00		2.2286E+00
			-33.50		2.2322E+00
			-33.00		2.2358E+00
			-32.50		2.2392E+00
			-32.00		2.2426E+00
			-31.50		2.2458E+00
			-31.00		2.2490E+00
			-30.50		2.2522E+00
			-30.00		2.2553E+00
			-29.50		2.2583E+00
			-29.00		2.2614E+00
			-28.50		2.2643E+00
			-28.00		2.2672E+00
			-27.50		2.2699E+00
			-27.00		2.2727E+00
			-26.50		2.2756E+00
			-26.00		2.2785E+00
			-25.50		2.2815E+00
			-25.00		2.2846E+00
			-24.50		2.2877E+00
			-24.00		2.2907E+00
			-23.50		2.2936E+00
			-23.00		2.2965E+00
			-22.50		2.2991E+00
			-22.00		2.3017E+00
			-21.50		2.3042E+00
			-21.00		2.3066E+00
			-20.50		2.3091E+00
			-20.00		2.3115E+00
			-19.50		2.3139E+00
			-19.00		2.3163E+00
			-18.50		2.3185E+00
			-18.00		2.3207E+00
			-17.50		2.3228E+00
			-17.00		2.3249E+00
			-16.50		2.3270E+00
			-16.00		2.3292E+00
			-15.50		2.3313E+00
			-15.00		2.3335E+00
			-14.50		2.3356E+00
			-14.00		2.3378E+00
			-13.50		2.3397E+00
			-13.00		2.3416E+00
			-12.50		2.3433E+00
			-12.00		2.3450E+00
			-11.50		2.3465E+00
			-11.00		2.3480E+00
			-10.50		2.3494E+00
			-10.00		2.3508E+00
			-9.50		2.3521E+00
			-9.00		2.3535E+00
			-8.50		2.3545E+00
			-8.00		2.3556E+00
			-7.50		2.3565E+00
			-7.00		2.3574E+00
			-6.50		2.3582E+00
			-6.00		2.3590E+00
			-5.50		2.3597E+00
			-5.00		2.3603E+00
			-4.50		2.3608E+00
			-4.00		2.3614E+00
			-3.50		2.3617E+00
			-3.00		2.3621E+00
			-2.50		2.3621E+00
			-2.00		2.3622E+00
			-1.50		2.3621E+00
			-1.00		2.3620E+00
			-0.50		2.3619E+00
			0.00		2.3617E+00
			0.50		2.3619E+00
			1.00		2.3620E+00
			1.50		2.3621E+00
			2.00		2.3622E+00
			2.50		2.3621E+00
			3.00		2.3621E+00
			3.50		2.3617E+00
			4.00		2.3614E+00
			4.50		2.3608E+00
			5.00		2.3603E+00
			5.50		2.3597E+00
			6.00		2.3590E+00
			6.50		2.3582E+00
			7.00		2.3574E+00
			7.50		2.3565E+00
			8.00		2.3556E+00
			8.50		2.3545E+00
			9.00		2.3535E+00
			9.50		2.3521E+00
			10.00		2.3508E+00
			10.50		2.3494E+00
			11.00		2.3480E+00
			11.50		2.3465E+00
			12.00		2.3450E+00
			12.50		2.3433E+00
			13.00		2.3416E+00
			13.50		2.3397E+00
			14.00		2.3378E+00
			14.50		2.3356E+00
			15.00		2.3335E+00
			15.50		2.3313E+00
			16.00		2.3292E+00
			16.50		2.3270E+00
			17.00		2.3249E+00
			17.50		2.3228E+00
			18.00		2.3207E+00
			18.50		2.3185E+00
			19.00		2.3163E+00
			19.50		2.3139E+00
			20.00		2.3115E+00
			20.50		2.3091E+00
			21.00		2.3066E+00
			21.50		2.3042E+00
			22.00		2.3017E+00
			22.50		2.2991E+00
			23.00		2.2965E+00
			23.50		2.2936E+00
			24.00		2.2907E+00
			24.50		2.2877E+00
			25.00		2.2846E+00
			25.50		2.2815E+00
			26.00		2.2785E+00
			26.50		2.2756E+00
			27.00		2.2727E+00
			27.50		2.2699E+00
			28.00		2.2672E+00
			28.50		2.2643E+00
			29.00		2.2614E+00
			29.50		2.2583E+00
			30.00		2.2553E+00
			30.50		2.2522E+00
			31.00		2.2490E+00
			31.50		2.2458E+00
			32.00		2.2426E+00
			32.50		2.2392E+00
			33.00		2.2358E+00
			33.50		2.2322E+00
			34.00		2.2286E+00
			34.50		2.2250E+00
			35.00		2.2214E+00
			35.50		2.2178E+00
			36.00		2.2143E+00
			36.50		2.2109E+00
			37.00		2.2075E+00
			37.50		2.2041E+00
			38.00		2.2006E+00
			38.50		2.1971E+00
			39.00		2.1936E+00
			39.50		2.1899E+00
			40.00		2.1863E+00
			40.50		2.1825E+00
			41.00		2.1788E+00
			41.50		2.1748E+00
			42.00		2.1709E+00
			42.50		2.1670E+00
			43.00		2.1631E+00
			43.50		2.1593E+00
			44.00		2.1555E+00
			44.50		2.1518E+00
			45.00		2.1481E+00
			45.50		2.1444E+00
			46.00		2.1408E+00
			46.50		2.1374E+00
			47.00		2.1339E+00
			47.50		2.1305E+00
			48.00		2.1270E+00
			48.50		2.1235E+00
			49.00		2.1200E+00
			49.50		2.1163E+00
			50.00		2.1126E+00
			50.50		2.1086E+00
			51.00		2.1046E+00
			51.50		2.1006E+00
			52.00		2.0966E+00
			52.50		2.0926E+00
			53.00		2.0887E+00
			53.50		2.0847E+00
			54.00		2.0807E+00
			54.50		2.0767E+00
			55.00		2.0728E+00
			55.50		2.0689E+00
			56.00		2.0650E+00
			56.50		2.0612E+00
			57.00		2.0574E+00
			57.50		2.0536E+00
			58.00		2.0499E+00
			58.50		2.0462E+00
			59.00		2.0425E+00
			59.50		2.0389E+00
			60.00		2.0353E+00
			60.50		2.0316E+00
			61.00		2.0279E+00
			61.50		2.0240E+00
			62.00		2.0202E+00
			62.50		2.0162E+00
			63.00		2.0122E+00
			63.50		2.0082E+00
			64.00		2.0041E+00
			64.50		2.0001E+00
			65.00		1.9962E+00
			65.50		1.9924E+00
			66.00		1.9886E+00
			66.50		1.9849E+00
			67.00		1.9812E+00
			67.50		1.9775E+00
			68.00		1.9737E+00
			68.50		1.9699E+00
			69.00		1.9662E+00
			69.50		1.9625E+00
			70.00		1.9589E+00
			70.50		1.9553E+00
			71.00		1.9516E+00
			71.50		1.9480E+00
			72.00		1.9443E+00
			72.50		1.9406E+00
			73.00		1.9370E+00
			73.50		1.9332E+00
			74.00		1.9295E+00
			74.50		1.9258E+00
			75.00		1.9221E+00
			75.50		1.9185E+00
			76.00		1.9149E+00
			76.50		1.9114E+00
			77.00		1.9078E+00
			77.50		1.9042E+00
			78.00		1.9006E+00
			78.50		1.8967E+00
			79.00		1.8929E+00
			79.50		1.8891E+00
			80.00		1.8852E+00
			80.50		1.8815E+00
			81.00		1.8778E+00
			81.50		1.8742E+00
			82.00		1.8707E+00
			82.50		1.8672E+00
			83.00		1.8638E+00
			83.50		1.8602E+00
			84.00		1.8566E+00
			84.50		1.8530E+00
			85.00		1.8494E+00
			85.50		1.8458E+00
			86.00		1.8421E+00
			86.50		1.8384E+00
			87.00		1.8347E+00
			87.50		1.8311E+00
			88.00		1.8275E+00
			88.50		1.8240E+00
			89.00		1.8204E+00
			89.50		1.8170E+00
			90.00		1.8136E+00
			90.50		1.8103E+00
			91.00		1.8069E+00
			91.50		1.8034E+00
			92.00		1.8000E+00
			92.50		1.7965E+00
			93.00		1.7930E+00
			93.50		1.7894E+00
			94.00		1.7859E+00
			94.50		1.7824E+00
			95.00		1.7789E+00
			95.50		1.7755E+00
			96.00		1.7721E+00
			96.50		1.7687E+00
			97.00		1.7652E+00
			97.50		1.7617E+00
			98.00		1.7581E+00
			98.50		1.7546E+00
			99.00		1.7511E+00
			99.50		1.7476E+00
			100.00		1.7441E+00
			100.50		1.7409E+00
			101.00		1.7377E+00
			101.50		1.7347E+00
			102.00		1.7316E+00
			102.50		1.7285E+00
			103.00		1.7253E+00
			103.50		1.7220E+00
			104.00		1.7186E+00
			104.50		1.7150E+00
			105.00		1.7114E+00
			105.50		1.7076E+00
			106.00		1.7039E+00
			106.50		1.7004E+00
			107.00		1.6969E+00
			107.50		1.6935E+00
			108.00		1.6902E+00
			108.50		1.6869E+00
			109.00		1.6837E+00
			109.50		1.6804E+00
			110.00		1.6771E+00
			110.50		1.6739E+00
			111.00		1.6708E+00
			111.50		1.6677E+00
			112.00		1.6646E+00
			112.50		1.6615E+00
			113.00		1.6584E+00
			113.50		1.6553E+00
			114.00		1.6522E+00
			114.50		1.6489E+00
			115.00		1.6457E+00
			115.50		1.6424E+00
			116.00		1.6392E+00
			116.50		1.6359E+00
			117.00		1.6327E+00
			117.50		1.6295E+00
			118.00		1.6263E+00
			118.50		1.6231E+00
			119.00		1.6200E+00
			119.50		1.6169E+00
			120.00		1.6137E+00
			120.50		1.6106E+00
			121.00		1.6075E+00
			121.50		1.6043E+00
			122.00		1.6012E+00
			122.50		1.5982E+00
			123.00		1.5951E+00
			123.50		1.5921E+00
			124.00		1.5890E+00
			124.50		1.5859E+00
			125.00		1.5828E+00
			125.50		1.5797E+00
			126.00		1.5765E+00
			126.50		1.5733E+00
			127.00		1.5702E+00
			127.50		1.5672E+00
			128.00		1.5642E+00
			128.50		1.5613E+00
			129.00		1.5584E+00
			129.50		1.5554E+00
			130.00		1.5525E+00
			130.50		1.5495E+00
			131.00		1.5465E+00
			131.50		1.5434E+00
			132.00		1.5404E+00
			132.50		1.5373E+00
			133.00		1.5343E+00
			133.50		1.5314E+00
			134.00		1.5285E+00
			134.50		1.5256E+00
			135.00		1.5226E+00
			135.50		1.5196E+00
			136.00		1.5166E+00
			136.50		1.5136E+00
			137.00		1.5106E+00
			137.50		1.5074E+00
			138.00		1.5042E+00
			138.50		1.5010E+00
			139.00		1.4978E+00
			139.50		1.4946E+00
			140.00		1.4914E+00
			140.50		1.4883E+00
			141.00		1.4852E+00
			141.50		1.4822E+00
			142.00		1.4793E+00
			142.50		1.4765E+00
			143.00		1.4738E+00
			143.50		1.4711E+00
			144.00		1.4683E+00
			144.50		1.4655E+00
			145.00		1.4627E+00
			145.50		1.4599E+00
			146.00		1.4572E+00
			146.50		1.4544E+00
			147.00		1.4516E+00
			147.50		1.4487E+00
			148.00		1.4458E+00
			148.50		1.4429E+00
			149.00		1.4400E+00
			149.50		1.4371E+00
			150.00		1.4342E+00
			150.50		1.4313E+00
			151.00		1.4284E+00
			151.50		1.4255E+00
			152.00		1.4227E+00
			152.50		1.4197E+00
			153.00		1.4168E+00
			153.50		1.4139E+00
			154.00		1.4110E+00
			154.50		1.4081E+00
			155.00		1.4053E+00
			155.50		1.4025E+00
			156.00		1.3997E+00
			156.50		1.3969E+00
			157.00		1.3940E+00
			157.50		1.3911E+00
			158.00		1.3883E+00
			158.50		1.3854E+00
			159.00		1.3825E+00
			159.50		1.3796E+00
			160.00		1.3767E+00
			160.50		1.3739E+00
			161.00		1.3710E+00
			161.50		1.3681E+00
			162.00		1.3652E+00
			162.50		1.3623E+00
			163.00		1.3594E+00
			163.50		1.3565E+00
			164.00		1.3535E+00
			164.50		1.3505E+00
			165.00		1.3475E+00
			165.50		1.3443E+00
			166.00		1.3412E+00
			166.50		1.3380E+00
			167.00		1.3348E+00
			167.50		1.3315E+00
			168.00		1.3282E+00
			168.50		1.3247E+00
			169.00		1.3213E+00
			169.50		1.3178E+00
			170.00		1.3144E+00
			170.50		1.3108E+00
			171.00		1.3072E+00
			171.50		1.3035E+00
			172.00		1.2998E+00
			172.50		1.2959E+00
			173.00		1.2919E+00
			173.50		1.2873E+00
			174.00		1.2826E+00
			174.50		1.2765E+00
			175.00		1.2703E+00
			175.50		1.2631E+00
			176.00		1.2560E+00
			176.50		1.2468E+00
			177.00		1.2376E+00
			177.50		1.2248E+00
			178.00		1.2121E+00
			178.50		1.1907E+00
			179.00		1.1693E+00
			179.50		1.1301E+00
			180.00		1.0909E+00
			180.50		1.0383E+00
			181.00		985.61E-03
			181.50		921.57E-03
			182.00		857.53E-03
			182.50		784.45E-03
			183.00		711.37E-03
			183.50		637.81E-03
			184.00		564.25E-03
			184.50		498.51E-03
			185.00		432.77E-03
			185.50		376.56E-03
			186.00		320.34E-03
			186.50		275.91E-03
			187.00		231.49E-03
			187.50		205.58E-03
			188.00		179.67E-03
			188.50		165.78E-03
			189.00		151.88E-03
			189.50		142.61E-03
			190.00		133.33E-03
			190.50		126.81E-03
			191.00		120.29E-03
			191.50		115.48E-03
			192.00		110.67E-03
			192.50		107.11E-03
			193.00		103.54E-03
			193.50		100.61E-03
			194.00		97.674E-03
			194.50		95.146E-03
			195.00		92.618E-03
			195.50		90.408E-03
			196.00		88.198E-03
			196.50		86.369E-03
			197.00		84.539E-03
			197.50		83.021E-03
			198.00		81.503E-03
			198.50		80.127E-03
			199.00		78.751E-03
			199.50		77.540E-03
			200.00		76.329E-03
			200.50		75.296E-03
			201.00		74.264E-03
			201.50		73.234E-03
			202.00		72.203E-03
			202.50		71.364E-03
			203.00		70.525E-03
			203.50		69.685E-03
			204.00		68.845E-03
			204.50		68.000E-03
			205.00		67.155E-03
			205.50		66.436E-03
			206.00		65.717E-03
			206.50		64.858E-03
			207.00		63.999E-03
			207.50		63.267E-03
			208.00		62.534E-03
			208.50		61.845E-03
			209.00		61.157E-03
			209.50		60.460E-03
			210.00		59.763E-03
			210.50		59.145E-03
			211.00		58.528E-03
			211.50		58.017E-03
			212.00		57.505E-03
			212.50		56.938E-03
			213.00		56.371E-03
			213.50		55.769E-03
			214.00		55.168E-03
		END_DATA
	END_SCAN  1
	BEGIN_SCAN  2
		TASK_NAME=tba PDD Profiles
		PROGRAM=WaterTankScans
		COMMENT=5x X
		MEAS_DATE=09-Feb-2021 16:44:19
		LINAC=TRUEBEAMSN4791
		MODALITY=X
		ISOCENTER=1000.00
		INPLANE_AXIS=Y
		CROSSPLANE_AXIS=X
		DEPTH_AXIS=Depth
		INPLANE_AXIS_DIR=TARGET_GUN
		CROSSPLANE_AXIS_DIR=LEFT_RIGHT
		DEPTH_AXIS_DIR=UP_DOWN
		ENERGY=6.00
		NOMINAL_DMAX=15.00
		SSD=900.00
		SCD=450.00
		WEDGE_ANGLE=0.00
		FIELD_INPLANE=400.00
		FIELD_CROSSPLANE=400.00
		FIELD_TYPE=RECTANGULAR
		GANTRY=0.00
		GANTRY_UPRIGHT_POSITION=0
		GANTRY_ROTATION=CW
		COLL_ANGLE=0.00
		COLL_OFFSET_INPLANE=0.00
		COLL_OFFSET_CROSSPLANE=0.00
		SCAN_DEVICE=BeamScan
		SCAN_DEVICE_SETUP=BARA_LEFT_RIGHT
		ELECTROMETER=BeamScan
		RANGE_FIELD=LOW
		RANGE_REFERENCE=MEDIUM
		DETECTOR=THIMBLE_CHAMBER
		DETECTOR_SUBCODE=SEMIFLEX
		DETECTOR_RADIUS=2.40
		DETECTOR_NAME=PTW 31021 Semiflex 3D (1)
		DETECTOR_SN=142316
		DETECTOR_CALIBRATION=588000000.00
		DETECTOR_IS_CALIBRATED=1
		DETECTOR_REFERENCE=THIMBLE_CHAMBER
		DETECTOR_REFERENCE_SUBCODE=SEMIFLEX
		DETECTOR_REFERENCE_RADIUS=2.75
		DETECTOR_REFERENCE_NAME=PTW 31010 Semiflex (1)
		DETECTOR_REFERENCE_SN=—
		DETECTOR_REFERENCE_IS_CALIBRATED=0
		DETECTOR_REFERENCE_CALIBRATION=303000000.00
		DETECTOR_HV=400.0
		DETECTOR_REFERENCE_HV=400.0
		DETECTOR_ORIENTATION=HORIZONTAL
		FILTER=FFF
		SCAN_SPEED_PROFILE=12.50
		SCAN_PROF_SPEED_DEP=DEPTH
		SCAN_SPEED_PDD=0.00
		SCAN_PDD_SPEED_DEP=ENERGY
		DETECTOR_TYPE=T31021
		REF_FIELD_DEPTH=300.00
		REF_FIELD_DEFINED=ISOCENTER
		REF_FIELD_INPLANE=100.00
		REF_FIELD_CROSSPLANE=100.00
		REF_SCAN_POSITIONS=-85.00;-84.00;-83.00;-82.00;-81.00;-80.00;-79.00;-78.00;-77.00;-76.00;-75.00;-74.00;-73.00;-72.00;-71.00;-70.00;-69.00;-68.00;-67.00;-66.00;-65.00;-64.00;-63.00;-62.00;-61.00;-60.00;-59.00;-58.00;-57.00;-56.00;-55.00;-54.00;-53.00;-52.00;-51.00;-50.00;-49.00;-48.00;-47.00;-46.00;-45.00;-44.00;-43.00;-42.00;-41.00;-40.00;-39.00;-38.00;-37.00;-36.00;-35.00;-34.00;-33.00;-32.00;-31.00;-30.00;-29.00;-28.00;-27.00;-26.00;-25.00;-24.00;-23.00;-22.00;-21.00;-20.00;-19.00;-18.00;-17.00;-16.00;-15.00;-14.00;-13.00;-12.00;-11.00;-10.00;-9.00;-8.00;-7.00;-6.00;-5.00;-4.00;-3.00;-2.00;-1.00;0.00;1.00;2.00;3.00;4.00;5.00;6.00;7.00;8.00;9.00;10.00;11.00;12.00;13.00;14.00;15.00;16.00;17.00;18.00;19.00;20.00;21.00;22.00;23.00;24.00;25.00;26.00;27.00;28.00;29.00;30.00;31.00;32.00;33.00;34.00;35.00;36.00;37.00;38.00;39.00;40.00;41.00;42.00;43.00;44.00;45.00;46.00;47.00;48.00;49.00;50.00;51.00;52.00;53.00;54.00;55.00;56.00;57.00;58.00;59.00;60.00;61.00;62.00;63.00;64.00;65.00;66.00;67.00;68.00;69.00;70.00;71.00;72.00;73.00;74.00;75.00;76.00;77.00;78.00;79.00;80.00;81.00;82.00;83.00;84.00;85.00;
		REF_OVERSCAN_FACTOR=1.00
		SCAN_CURVETYPE=CROSSPLANE_PROFILE
		SCAN_DEPTH=50.00
		SCAN_OFFAXIS_INPLANE=0.00
		SCAN_OFFAXIS_CROSSPLANE=0.00
		SCAN_ANGLE=0.00
		SCAN_DIAGONAL=NOT_DIAGONAL
		SCAN_DIRECTION=NEGATIVE
		MEAS_MEDIUM=WATER
		MEAS_PRESET=MEAS_CONTINUOUS_REFERENCE_SCAN
		MEAS_TIME=0.080
		MEAS_UNIT=A.U.
		INCLINATION_ANGLE=0.00
		PRESSURE=1013.25
		TEMPERATURE=20.00
		NORM_TEMPERATURE=20.00
		CORRECTION_FACTOR=1.0000
		EXPECTED_MAX_DOSE_RATE=3.00
		EPOM_DEPTH_SHIFT=0.2
		EPOM_MODE=SHIFT_PROTOCOL
		CORRECTIONS=SMOOTHED_CORR;SYMMETRY_CORR;INTERPOLATED_CORR;
		BEGIN_DATA
			-224.00		72.032E-03
			-223.50		72.777E-03
			-223.00		73.523E-03
			-222.50		74.181E-03
			-222.00		74.839E-03
			-221.50		75.653E-03
			-221.00		76.466E-03
			-220.50		77.302E-03
			-220.00		78.137E-03
			-219.50		78.894E-03
			-219.00		79.651E-03
			-218.50		80.466E-03
			-218.00		81.282E-03
			-217.50		82.112E-03
			-217.00		82.943E-03
			-216.50		83.875E-03
			-216.00		84.806E-03
			-215.50		85.748E-03
			-215.00		86.689E-03
			-214.50		87.539E-03
			-214.00		88.388E-03
			-213.50		89.538E-03
			-213.00		90.689E-03
			-212.50		91.901E-03
			-212.00		93.113E-03
			-211.50		94.216E-03
			-211.00		95.319E-03
			-210.50		96.358E-03
			-210.00		97.396E-03
			-209.50		98.559E-03
			-209.00		99.721E-03
			-208.50		101.16E-03
			-208.00		102.60E-03
			-207.50		103.93E-03
			-207.00		105.25E-03
			-206.50		106.76E-03
			-206.00		108.26E-03
			-205.50		110.01E-03
			-205.00		111.76E-03
			-204.50		113.51E-03
			-204.00		115.26E-03
			-203.50		117.37E-03
			-203.00		119.47E-03
			-202.50		121.75E-03
			-202.00		124.02E-03
			-201.50		126.63E-03
			-201.00		129.24E-03
			-200.50		132.32E-03
			-200.00		135.39E-03
			-199.50		138.99E-03
			-199.00		142.58E-03
			-198.50		146.99E-03
			-198.00		151.40E-03
			-197.50		157.11E-03
			-197.00		162.82E-03
			-196.50		170.63E-03
			-196.00		178.43E-03
			-195.50		189.62E-03
			-195.00		200.80E-03
			-194.50		221.34E-03
			-194.00		241.88E-03
			-193.50		274.37E-03
			-193.00		306.86E-03
			-192.50		348.29E-03
			-192.00		389.72E-03
			-191.50		438.53E-03
			-191.00		487.34E-03
			-190.50		541.82E-03
			-190.00		596.31E-03
			-189.50		650.95E-03
			-189.00		705.58E-03
			-188.50		754.00E-03
			-188.00		802.41E-03
			-187.50		842.21E-03
			-187.00		882.00E-03
			-186.50		911.83E-03
			-186.00		941.65E-03
			-185.50		960.13E-03
			-185.00		978.61E-03
			-184.50		989.56E-03
			-184.00		1.0005E+00
			-183.50		1.0085E+00
			-183.00		1.0165E+00
			-182.50		1.0230E+00
			-182.00		1.0295E+00
			-181.50		1.0352E+00
			-181.00		1.0409E+00
			-180.50		1.0453E+00
			-180.00		1.0497E+00
			-179.50		1.0538E+00
			-179.00		1.0578E+00
			-178.50		1.0615E+00
			-178.00		1.0652E+00
			-177.50		1.0687E+00
			-177.00		1.0721E+00
			-176.50		1.0756E+00
			-176.00		1.0790E+00
			-175.50		1.0824E+00
			-175.00		1.0857E+00
			-174.50		1.0890E+00
			-174.00		1.0922E+00
			-173.50		1.0953E+00
			-173.00		1.0984E+00
			-172.50		1.1013E+00
			-172.00		1.1042E+00
			-171.50		1.1070E+00
			-171.00		1.1098E+00
			-170.50		1.1125E+00
			-170.00		1.1152E+00
			-169.50		1.1179E+00
			-169.00		1.1207E+00
			-168.50		1.1235E+00
			-168.00		1.1263E+00
			-167.50		1.1291E+00
			-167.00		1.1318E+00
			-166.50		1.1344E+00
			-166.00		1.1370E+00
			-165.50		1.1397E+00
			-165.00		1.1424E+00
			-164.50		1.1451E+00
			-164.00		1.1478E+00
			-163.50		1.1505E+00
			-163.00		1.1532E+00
			-162.50		1.1559E+00
			-162.00		1.1586E+00
			-161.50		1.1611E+00
			-161.00		1.1637E+00
			-160.50		1.1663E+00
			-160.00		1.1689E+00
			-159.50		1.1715E+00
			-159.00		1.1741E+00
			-158.50		1.1768E+00
			-158.00		1.1795E+00
			-157.50		1.1822E+00
			-157.00		1.1848E+00
			-156.50		1.1874E+00
			-156.00		1.1899E+00
			-155.50		1.1925E+00
			-155.00		1.1951E+00
			-154.50		1.1977E+00
			-154.00		1.2004E+00
			-153.50		1.2031E+00
			-153.00		1.2057E+00
			-152.50		1.2083E+00
			-152.00		1.2109E+00
			-151.50		1.2134E+00
			-151.00		1.2159E+00
			-150.50		1.2183E+00
			-150.00		1.2208E+00
			-149.50		1.2232E+00
			-149.00		1.2256E+00
			-148.50		1.2280E+00
			-148.00		1.2304E+00
			-147.50		1.2328E+00
			-147.00		1.2353E+00
			-146.50		1.2378E+00
			-146.00		1.2402E+00
			-145.50		1.2428E+00
			-145.00		1.2454E+00
			-144.50		1.2480E+00
			-144.00		1.2506E+00
			-143.50		1.2533E+00
			-143.00		1.2559E+00
			-142.50		1.2587E+00
			-142.00		1.2614E+00
			-141.50		1.2640E+00
			-141.00		1.2666E+00
			-140.50		1.2692E+00
			-140.00		1.2718E+00
			-139.50		1.2744E+00
			-139.00		1.2770E+00
			-138.50		1.2796E+00
			-138.00		1.2822E+00
			-137.50		1.2848E+00
			-137.00		1.2874E+00
			-136.50		1.2901E+00
			-136.00		1.2927E+00
			-135.50		1.2954E+00
			-135.00		1.2980E+00
			-134.50		1.3007E+00
			-134.00		1.3033E+00
			-133.50		1.3059E+00
			-133.00		1.3084E+00
			-132.50		1.3109E+00
			-132.00		1.3134E+00
			-131.50		1.3160E+00
			-131.00		1.3186E+00
			-130.50		1.3212E+00
			-130.00		1.3238E+00
			-129.50		1.3263E+00
			-129.00		1.3289E+00
			-128.50		1.3314E+00
			-128.00		1.3339E+00
			-127.50		1.3363E+00
			-127.00		1.3388E+00
			-126.50		1.3412E+00
