BEGIN_SCAN_DATA
	FORMAT=CC-Export V1.9                  
	FILE_CREATION_DATE=11-Mar-2022 17:03:56
	LAST_MODIFIED=11-Mar-2022 17:03:56
	BEGIN_SCAN  1
		TASK_NAME=tba PDD Profiles
		PROGRAM=WaterTankScans
		COMMENT=Gemelli
		MEAS_DATE=08-Feb-2021 09:38:10
		LINAC=MRIdian
		MODALITY=X
		ISOCENTER=900.00
		INPLANE_AXIS=Y
		CROSSPLANE_AXIS=X
		DEPTH_AXIS=Depth
		INPLANE_AXIS_DIR=TARGET_GUN
		CROSSPLANE_AXIS_DIR=LEFT_RIGHT
		DEPTH_AXIS_DIR=UP_DOWN
		ENERGY=6.00
		NOMINAL_DMAX=15.00
		SSD=850.00
		SCD=450.00
		WEDGE_ANGLE=0.00
		FIELD_INPLANE=99.60
		FIELD_CROSSPLANE=99.60
		FIELD_TYPE=RECTANGULAR
		GANTRY=0.00
		GANTRY_UPRIGHT_POSITION=0
		GANTRY_ROTATION=CW
		COLL_ANGLE=0.00
		COLL_OFFSET_INPLANE=0.00
		COLL_OFFSET_CROSSPLANE=0.00
		SCAN_DEVICE=BeamScan
		SCAN_DEVICE_SETUP=BARA_LEFT_RIGHT
		ELECTROMETER=BeamScan
		RANGE_FIELD=LOW
		RANGE_REFERENCE=MEDIUM
		DETECTOR=THIMBLE_CHAMBER
		DETECTOR_RADIUS=2.40
		DETECTOR_NAME=A28MR
		DETECTOR_SN=-
		DETECTOR_CALIBRATION=588000000.00
		DETECTOR_IS_CALIBRATED=0
		DETECTOR_REFERENCE=THIMBLE_CHAMBER
		DETECTOR_REFERENCE_RADIUS=2.75
		DETECTOR_REFERENCE_NAME=A28MR
		DETECTOR_REFERENCE_SN=—
		DETECTOR_REFERENCE_IS_CALIBRATED=0
		DETECTOR_REFERENCE_CALIBRATION=303000000.00
		DETECTOR_HV=300.0
		DETECTOR_REFERENCE_HV=300.0
		DETECTOR_ORIENTATION=HORIZONTAL
		FILTER=FFF
		SCAN_SPEED_PROFILE=10.00
		SCAN_PROF_SPEED_DEP=DEPTH
		SCAN_SPEED_PDD=0.00
		SCAN_PDD_SPEED_DEP=ENERGY
		DETECTOR_TYPE=A28MR
		REF_FIELD_DEPTH=220.00
		REF_FIELD_DEFINED=ISOCENTER
		REF_FIELD_INPLANE=100.00
		REF_FIELD_CROSSPLANE=100.00
		REF_SCAN_POSITIONS=-85.00;-84.00;-83.00;-82.00;-81.00;-80.00;-79.00;-78.00;-77.00;-76.00;-75.00;-74.00;-73.00;-72.00;-71.00;-70.00;-69.00;-68.00;-67.00;-66.00;-65.00;-64.00;-63.00;-62.00;-61.00;-60.00;-59.00;-58.00;-57.00;-56.00;-55.00;-54.00;-53.00;-52.00;-51.00;-50.00;-49.00;-48.00;-47.00;-46.00;-45.00;-44.00;-43.00;-42.00;-41.00;-40.00;-39.00;-38.00;-37.00;-36.00;-35.00;-34.00;-33.00;-32.00;-31.00;-30.00;-29.00;-28.00;-27.00;-26.00;-25.00;-24.00;-23.00;-22.00;-21.00;-20.00;-19.00;-18.00;-17.00;-16.00;-15.00;-14.00;-13.00;-12.00;-11.00;-10.00;-9.00;-8.00;-7.00;-6.00;-5.00;-4.00;-3.00;-2.00;-1.00;0.00;1.00;2.00;3.00;4.00;5.00;6.00;7.00;8.00;9.00;10.00;11.00;12.00;13.00;14.00;15.00;16.00;17.00;18.00;19.00;20.00;21.00;22.00;23.00;24.00;25.00;26.00;27.00;28.00;29.00;30.00;31.00;32.00;33.00;34.00;35.00;36.00;37.00;38.00;39.00;40.00;41.00;42.00;43.00;44.00;45.00;46.00;47.00;48.00;49.00;50.00;51.00;52.00;53.00;54.00;55.00;56.00;57.00;58.00;59.00;60.00;61.00;62.00;63.00;64.00;65.00;66.00;67.00;68.00;69.00;70.00;71.00;72.00;73.00;74.00;75.00;76.00;77.00;78.00;79.00;80.00;81.00;82.00;83.00;84.00;85.00;
		REF_OVERSCAN_FACTOR=1.00
		SCAN_CURVETYPE=CROSSPLANE_PROFILE
		SCAN_DEPTH=20.00
		SCAN_OFFAXIS_INPLANE=0.00
		SCAN_OFFAXIS_CROSSPLANE=0.00
		SCAN_ANGLE=0.00
		SCAN_DIAGONAL=NOT_DIAGONAL
		SCAN_DIRECTION=POSITIVE
		MEAS_MEDIUM=WATER
		MEAS_PRESET=MEAS_CONTINUOUS_REFERENCE_SCAN
		MEAS_TIME=0.100
		MEAS_UNIT=A.U.
		INCLINATION_ANGLE=0.00
		PRESSURE=1013.25
		TEMPERATURE=20.00
		NORM_TEMPERATURE=20.00
		CORRECTION_FACTOR=1.0000
		EXPECTED_MAX_DOSE_RATE=3.00
		EPOM_DEPTH_SHIFT=0.2
		EPOM_MODE=SHIFT_PROTOCOL
		CORRECTIONS=SMOOTHED_CORR;CAX_CORR;INTERPOLATED_CORR;SYMMETRY_CORR;
		BEGIN_DATA
			-90.00		5.3065E+00
			-89.50		5.4718E+00
			-89.00		5.5448E+00
			-88.50		5.6441E+00
			-88.00		5.7348E+00
			-87.50		5.7810E+00
			-87.00		5.8155E+00
			-86.50		5.8628E+00
			-86.00		5.9221E+00
			-85.50		6.0063E+00
			-85.00		6.0981E+00
			-84.50		6.1844E+00
			-84.00		6.2621E+00
			-83.50		6.3390E+00
			-83.00		6.4139E+00
			-82.50		6.4974E+00
			-82.00		6.6034E+00
			-81.50		6.7140E+00
			-81.00		6.8043E+00
			-80.50		6.8876E+00
			-80.00		6.9729E+00
			-79.50		7.0556E+00
			-79.00		7.1498E+00
			-78.50		7.2694E+00
			-78.00		7.3785E+00
			-77.50		7.4683E+00
			-77.00		7.5755E+00
			-76.50		7.7298E+00
			-76.00		7.8678E+00
			-75.50		7.9459E+00
			-75.00		8.0451E+00
			-74.50		8.2107E+00
			-74.00		8.3698E+00
			-73.50		8.4900E+00
			-73.00		8.6073E+00
			-72.50		8.7316E+00
			-72.00		8.8696E+00
			-71.50		9.0519E+00
			-71.00		9.2334E+00
			-70.50		9.3886E+00
			-70.00		9.5340E+00
			-69.50		9.6839E+00
			-69.00		9.8566E+00
			-68.50		10.025E+00
			-68.00		10.184E+00
			-67.50		10.430E+00
			-67.00		10.687E+00
			-66.50		10.914E+00
			-66.00		11.149E+00
			-65.50		11.378E+00
			-65.00		11.608E+00
			-64.50		11.885E+00
			-64.00		12.176E+00
			-63.50		12.444E+00
			-63.00		12.705E+00
			-62.50		13.030E+00
			-62.00		13.382E+00
			-61.50		13.757E+00
			-61.00		14.131E+00
			-60.50		14.538E+00
			-60.00		14.980E+00
			-59.50		15.496E+00
			-59.00		16.036E+00
			-58.50		16.644E+00
			-58.00		17.272E+00
			-57.50		17.982E+00
			-57.00		18.759E+00
			-56.50		19.792E+00
			-56.00		20.900E+00
			-55.50		22.236E+00
			-55.00		23.704E+00
			-54.50		25.737E+00
			-54.00		28.008E+00
			-53.50		31.270E+00
			-53.00		35.034E+00
			-52.50		40.602E+00
			-52.00		47.220E+00
			-51.50		57.262E+00
			-51.00		68.741E+00
			-50.50		84.293E+00
			-50.00		101.04E+00
			-49.50		120.50E+00
			-49.00		140.71E+00
			-48.50		162.70E+00
			-48.00		185.09E+00
			-47.50		207.79E+00
			-47.00		230.32E+00
			-46.50		251.64E+00
			-46.00		272.42E+00
			-45.50		290.96E+00
			-45.00		308.30E+00
			-44.50		322.04E+00
			-44.00		334.47E+00
			-43.50		343.42E+00
			-43.00		351.36E+00
			-42.50		357.20E+00
			-42.00		362.32E+00
			-41.50		365.92E+00
			-41.00		369.31E+00
			-40.50		372.26E+00
			-40.00		374.85E+00
			-39.50		377.00E+00
			-39.00		379.08E+00
			-38.50		380.90E+00
			-38.00		382.66E+00
			-37.50		384.21E+00
			-37.00		385.67E+00
			-36.50		387.04E+00
			-36.00		388.40E+00
			-35.50		389.51E+00
			-35.00		390.48E+00
			-34.50		391.54E+00
			-34.00		392.68E+00
			-33.50		393.74E+00
			-33.00		394.76E+00
			-32.50		395.73E+00
			-32.00		396.67E+00
			-31.50		397.61E+00
			-31.00		398.57E+00
			-30.50		399.48E+00
			-30.00		400.40E+00
			-29.50		401.23E+00
			-29.00		402.04E+00
			-28.50		402.79E+00
			-28.00		403.52E+00
			-27.50		404.19E+00
			-27.00		404.84E+00
			-26.50		405.47E+00
			-26.00		406.09E+00
			-25.50		406.76E+00
			-25.00		407.44E+00
			-24.50		408.13E+00
			-24.00		408.83E+00
			-23.50		409.51E+00
			-23.00		410.16E+00
			-22.50		410.85E+00
			-22.00		411.52E+00
			-21.50		412.22E+00
			-21.00		412.92E+00
			-20.50		413.61E+00
			-20.00		414.29E+00
			-19.50		414.89E+00
			-19.00		415.46E+00
			-18.50		415.96E+00
			-18.00		416.41E+00
			-17.50		416.84E+00
			-17.00		417.26E+00
			-16.50		417.65E+00
			-16.00		418.04E+00
			-15.50		418.40E+00
			-15.00		418.74E+00
			-14.50		419.13E+00
			-14.00		419.51E+00
			-13.50		419.90E+00
			-13.00		420.29E+00
			-12.50		420.61E+00
			-12.00		420.91E+00
			-11.50		421.18E+00
			-11.00		421.46E+00
			-10.50		421.75E+00
			-10.00		422.07E+00
			-9.50		422.39E+00
			-9.00		422.71E+00
			-8.50		422.98E+00
			-8.00		423.22E+00
			-7.50		423.38E+00
			-7.00		423.51E+00
			-6.50		423.61E+00
			-6.00		423.72E+00
			-5.50		423.87E+00
			-5.00		424.05E+00
			-4.50		424.26E+00
			-4.00		424.47E+00
			-3.50		424.61E+00
			-3.00		424.73E+00
			-2.50		424.77E+00
			-2.00		424.78E+00
			-1.50		424.79E+00
			-1.00		424.80E+00
			-0.50		424.80E+00
			0.00		424.81E+00
			0.50		424.80E+00
			1.00		424.80E+00
			1.50		424.79E+00
			2.00		424.78E+00
			2.50		424.77E+00
			3.00		424.73E+00
			3.50		424.61E+00
			4.00		424.47E+00
			4.50		424.26E+00
			5.00		424.05E+00
			5.50		423.87E+00
			6.00		423.72E+00
			6.50		423.61E+00
			7.00		423.51E+00
			7.50		423.38E+00
			8.00		423.22E+00
			8.50		422.98E+00
			9.00		422.71E+00
			9.50		422.39E+00
			10.00		422.07E+00
			10.50		421.75E+00
			11.00		421.46E+00
			11.50		421.18E+00
			12.00		420.91E+00
			12.50		420.61E+00
			13.00		420.29E+00
			13.50		419.90E+00
			14.00		419.51E+00
			14.50		419.13E+00
			15.00		418.74E+00
			15.50		418.40E+00
			16.00		418.04E+00
			16.50		417.65E+00
			17.00		417.26E+00
			17.50		416.84E+00
			18.00		416.41E+00
			18.50		415.96E+00
			19.00		415.46E+00
			19.50		414.89E+00
			20.00		414.29E+00
			20.50		413.61E+00
			21.00		412.92E+00
			21.50		412.22E+00
			22.00		411.52E+00
			22.50		410.85E+00
			23.00		410.16E+00
			23.50		409.51E+00
			24.00		408.83E+00
			24.50		408.13E+00
			25.00		407.44E+00
			25.50		406.76E+00
			26.00		406.09E+00
			26.50		405.47E+00
			27.00		404.84E+00
			27.50		404.19E+00
			28.00		403.52E+00
			28.50		402.79E+00
			29.00		402.04E+00
			29.50		401.23E+00
			30.00		400.40E+00
			30.50		399.48E+00
			31.00		398.57E+00
			31.50		397.61E+00
			32.00		396.67E+00
			32.50		395.73E+00
			33.00		394.76E+00
			33.50		393.74E+00
			34.00		392.68E+00
			34.50		391.54E+00
			35.00		390.48E+00
			35.50		389.51E+00
			36.00		388.40E+00
			36.50		387.04E+00
			37.00		385.67E+00
			37.50		384.21E+00
			38.00		382.66E+00
			38.50		380.90E+00
			39.00		379.08E+00
			39.50		377.00E+00
			40.00		374.85E+00
			40.50		372.26E+00
			41.00		369.31E+00
			41.50		365.92E+00
			42.00		362.32E+00
			42.50		357.20E+00
			43.00		351.36E+00
			43.50		343.42E+00
			44.00		334.47E+00
			44.50		322.04E+00
			45.00		308.30E+00
			45.50		290.96E+00
			46.00		272.42E+00
			46.50		251.64E+00
			47.00		230.32E+00
			47.50		207.79E+00
			48.00		185.09E+00
			48.50		162.70E+00
			49.00		140.71E+00
			49.50		120.50E+00
			50.00		101.04E+00
			50.50		84.293E+00
			51.00		68.741E+00
			51.50		57.262E+00
			52.00		47.220E+00
			52.50		40.602E+00
			53.00		35.034E+00
			53.50		31.270E+00
			54.00		28.008E+00
			54.50		25.737E+00
			55.00		23.704E+00
			55.50		22.236E+00
			56.00		20.900E+00
			56.50		19.792E+00
			57.00		18.759E+00
			57.50		17.982E+00
			58.00		17.272E+00
			58.50		16.644E+00
			59.00		16.036E+00
			59.50		15.496E+00
			60.00		14.980E+00
			60.50		14.538E+00
			61.00		14.131E+00
			61.50		13.757E+00
			62.00		13.382E+00
			62.50		13.030E+00
			63.00		12.705E+00
			63.50		12.444E+00
			64.00		12.176E+00
			64.50		11.885E+00
			65.00		11.608E+00
			65.50		11.378E+00
			66.00		11.149E+00
			66.50		10.914E+00
			67.00		10.687E+00
			67.50		10.430E+00
			68.00		10.184E+00
			68.50		10.025E+00
			69.00		9.8566E+00
			69.50		9.6839E+00
			70.00		9.5340E+00
			70.50		9.3886E+00
			71.00		9.2334E+00
			71.50		9.0519E+00
			72.00		8.8696E+00
			72.50		8.7316E+00
			73.00		8.6073E+00
			73.50		8.4900E+00
			74.00		8.3698E+00
			74.50		8.2107E+00
			75.00		8.0451E+00
			75.50		7.9459E+00
			76.00		7.8678E+00
			76.50		7.7298E+00
			77.00		7.5755E+00
			77.50		7.4683E+00
			78.00		7.3785E+00
			78.50		7.2694E+00
			79.00		7.1498E+00
			79.50		7.0556E+00
			80.00		6.9729E+00
			80.50		6.8876E+00
			81.00		6.8043E+00
			81.50		6.7140E+00
			82.00		6.6034E+00
			82.50		6.4974E+00
			83.00		6.4139E+00
			83.50		6.3390E+00
			84.00		6.2621E+00
			84.50		6.1844E+00
			85.00		6.0981E+00
			85.50		6.0063E+00
			86.00		5.9221E+00
			86.50		5.8628E+00
			87.00		5.8155E+00
			87.50		5.7810E+00
			88.00		5.7348E+00
			88.50		5.6441E+00
			89.00		5.5448E+00
			89.50		5.4718E+00
			90.00		5.3065E+00
		END_DATA
	END_SCAN  1
	BEGIN_SCAN  2
		TASK_NAME=tba PDD Profiles
		PROGRAM=WaterTankScans
		COMMENT=Gemelli
		MEAS_DATE=08-Feb-2021 09:38:10
		LINAC=MRIdian
		MODALITY=X
		ISOCENTER=900.00
		INPLANE_AXIS=Y
		CROSSPLANE_AXIS=X
		DEPTH_AXIS=Depth
		INPLANE_AXIS_DIR=TARGET_GUN
		CROSSPLANE_AXIS_DIR=LEFT_RIGHT
		DEPTH_AXIS_DIR=UP_DOWN
		ENERGY=6.00
		NOMINAL_DMAX=15.00
		SSD=850.00
		SCD=450.00
		WEDGE_ANGLE=0.00
		FIELD_INPLANE=99.60
		FIELD_CROSSPLANE=99.60
		FIELD_TYPE=RECTANGULAR
		GANTRY=0.00
		GANTRY_UPRIGHT_POSITION=0
		GANTRY_ROTATION=CW
		COLL_ANGLE=0.00
		COLL_OFFSET_INPLANE=0.00
		COLL_OFFSET_CROSSPLANE=0.00
		SCAN_DEVICE=BeamScan
		SCAN_DEVICE_SETUP=BARA_LEFT_RIGHT
		ELECTROMETER=BeamScan
		RANGE_FIELD=LOW
		RANGE_REFERENCE=MEDIUM
		DETECTOR=THIMBLE_CHAMBER
		DETECTOR_RADIUS=2.40
		DETECTOR_NAME=A28MR
		DETECTOR_SN=-
		DETECTOR_CALIBRATION=588000000.00
		DETECTOR_IS_CALIBRATED=0
		DETECTOR_REFERENCE=THIMBLE_CHAMBER
		DETECTOR_REFERENCE_RADIUS=2.75
		DETECTOR_REFERENCE_NAME=A28MR
		DETECTOR_REFERENCE_SN=—
		DETECTOR_REFERENCE_IS_CALIBRATED=0
		DETECTOR_REFERENCE_CALIBRATION=303000000.00
		DETECTOR_HV=300.0
		DETECTOR_REFERENCE_HV=300.0
		DETECTOR_ORIENTATION=HORIZONTAL
		FILTER=FFF
		SCAN_SPEED_PROFILE=10.00
		SCAN_PROF_SPEED_DEP=DEPTH
		SCAN_SPEED_PDD=0.00
		SCAN_PDD_SPEED_DEP=ENERGY
		DETECTOR_TYPE=A28MR
		REF_FIELD_DEPTH=220.00
		REF_FIELD_DEFINED=ISOCENTER
		REF_FIELD_INPLANE=100.00
		REF_FIELD_CROSSPLANE=100.00
		REF_SCAN_POSITIONS=-85.00;-84.00;-83.00;-82.00;-81.00;-80.00;-79.00;-78.00;-77.00;-76.00;-75.00;-74.00;-73.00;-72.00;-71.00;-70.00;-69.00;-68.00;-67.00;-66.00;-65.00;-64.00;-63.00;-62.00;-61.00;-60.00;-59.00;-58.00;-57.00;-56.00;-55.00;-54.00;-53.00;-52.00;-51.00;-50.00;-49.00;-48.00;-47.00;-46.00;-45.00;-44.00;-43.00;-42.00;-41.00;-40.00;-39.00;-38.00;-37.00;-36.00;-35.00;-34.00;-33.00;-32.00;-31.00;-30.00;-29.00;-28.00;-27.00;-26.00;-25.00;-24.00;-23.00;-22.00;-21.00;-20.00;-19.00;-18.00;-17.00;-16.00;-15.00;-14.00;-13.00;-12.00;-11.00;-10.00;-9.00;-8.00;-7.00;-6.00;-5.00;-4.00;-3.00;-2.00;-1.00;0.00;1.00;2.00;3.00;4.00;5.00;6.00;7.00;8.00;9.00;10.00;11.00;12.00;13.00;14.00;15.00;16.00;17.00;18.00;19.00;20.00;21.00;22.00;23.00;24.00;25.00;26.00;27.00;28.00;29.00;30.00;31.00;32.00;33.00;34.00;35.00;36.00;37.00;38.00;39.00;40.00;41.00;42.00;43.00;44.00;45.00;46.00;47.00;48.00;49.00;50.00;51.00;52.00;53.00;54.00;55.00;56.00;57.00;58.00;59.00;60.00;61.00;62.00;63.00;64.00;65.00;66.00;67.00;68.00;69.00;70.00;71.00;72.00;73.00;74.00;75.00;76.00;77.00;78.00;79.00;80.00;81.00;82.00;83.00;84.00;85.00;
		REF_OVERSCAN_FACTOR=1.00
		SCAN_CURVETYPE=CROSSPLANE_PROFILE
		SCAN_DEPTH=55.00
		SCAN_OFFAXIS_INPLANE=0.00
		SCAN_OFFAXIS_CROSSPLANE=0.00
		SCAN_ANGLE=0.00
		SCAN_DIAGONAL=NOT_DIAGONAL
		SCAN_DIRECTION=POSITIVE
		MEAS_MEDIUM=WATER
		MEAS_PRESET=MEAS_CONTINUOUS_REFERENCE_SCAN
		MEAS_TIME=0.100
		MEAS_UNIT=A.U.
		INCLINATION_ANGLE=0.00
		PRESSURE=1013.25
		TEMPERATURE=20.00
		NORM_TEMPERATURE=20.00
		CORRECTION_FACTOR=1.0000
		EXPECTED_MAX_DOSE_RATE=3.00
		EPOM_DEPTH_SHIFT=0.2
		EPOM_MODE=SHIFT_PROTOCOL
		CORRECTIONS=CAX_CORR;INTERPOLATED_CORR;SYMMETRY_CORR;
		BEGIN_DATA
			-90.00		7.7274E+00
			-89.50		7.6277E+00
			-89.00		7.6704E+00
			-88.50		7.7890E+00
			-88.00		7.9227E+00
			-87.50		8.0277E+00
			-87.00		8.1185E+00
			-86.50		8.2649E+00
			-86.00		8.4334E+00
			-85.50		8.5770E+00
			-85.00		8.7077E+00
			-84.50		8.7998E+00
			-84.00		8.8894E+00
			-83.50		8.9951E+00
			-83.00		9.1082E+00
			-82.50		9.2790E+00
			-82.00		9.4517E+00
			-81.50		9.5781E+00
			-81.00		9.7005E+00
			-80.50		9.8587E+00
			-80.00		10.022E+00
			-79.50		10.198E+00
			-79.00		10.372E+00
			-78.50		10.479E+00
			-78.00		10.582E+00
			-77.50		10.804E+00
			-77.00		11.041E+00
			-76.50		11.247E+00
			-76.00		11.449E+00
			-75.50		11.667E+00
			-75.00		11.875E+00
			-74.50		12.024E+00
			-74.00		12.196E+00
			-73.50		12.459E+00
			-73.00		12.708E+00
			-72.50		12.945E+00
			-72.00		13.191E+00
			-71.50		13.420E+00
			-71.00		13.649E+00
			-70.50		13.907E+00
			-70.00		14.160E+00
			-69.50		14.470E+00
			-69.00		14.799E+00
			-68.50		15.115E+00
			-68.00		15.425E+00
			-67.50		15.705E+00
			-67.00		15.990E+00
			-66.50		16.389E+00
			-66.00		16.792E+00
			-65.50		17.164E+00
			-65.00		17.530E+00
			-64.50		17.908E+00
			-64.00		18.305E+00
			-63.50		18.828E+00
			-63.00		19.361E+00
			-62.50		19.881E+00
			-62.00		20.402E+00
			-61.50		21.010E+00
			-61.00		21.638E+00
			-60.50		22.256E+00
			-60.00		22.891E+00
			-59.50		23.740E+00
			-59.00		24.615E+00
			-58.50		25.656E+00
			-58.00		26.743E+00
			-57.50		28.057E+00
			-57.00		29.448E+00
			-56.50		31.286E+00
			-56.00		33.257E+00
			-55.50		35.974E+00
			-55.00		38.980E+00
			-54.50		43.703E+00
			-54.00		48.795E+00
			-53.50		56.605E+00
			-53.00		65.025E+00
			-52.50		76.853E+00
			-52.00		89.374E+00
			-51.50		104.10E+00
			-51.00		119.23E+00
			-50.50		136.14E+00
			-50.00		153.29E+00
			-49.50		170.52E+00
			-49.00		187.67E+00
			-48.50		204.10E+00
			-48.00		220.30E+00
			-47.50		234.86E+00
			-47.00		248.80E+00
			-46.50		259.55E+00
			-46.00		269.72E+00
			-45.50		276.99E+00
			-45.00		283.78E+00
			-44.50		288.64E+00
			-44.00		293.33E+00
			-43.50		297.01E+00
			-43.00		300.46E+00
			-42.50		303.17E+00
			-42.00		305.78E+00
			-41.50		307.87E+00
			-41.00		309.83E+00
			-40.50		311.32E+00
			-40.00		312.77E+00
			-39.50		314.10E+00
			-39.00		315.40E+00
			-38.50		316.78E+00
			-38.00		318.20E+00
			-37.50		319.43E+00
			-37.00		320.61E+00
			-36.50		321.73E+00
			-36.00		322.84E+00
			-35.50		323.64E+00
			-35.00		324.37E+00
			-34.50		325.21E+00
			-34.00		326.11E+00
			-33.50		327.10E+00
			-33.00		328.08E+00
			-32.50		329.04E+00
			-32.00		330.01E+00
			-31.50		330.89E+00
			-31.00		331.72E+00
			-30.50		332.43E+00
			-30.00		333.08E+00
			-29.50		333.45E+00
			-29.00		333.92E+00
			-28.50		334.92E+00
			-28.00		335.91E+00
			-27.50		336.83E+00
			-27.00		337.71E+00
			-26.50		338.08E+00
			-26.00		338.38E+00
			-25.50		339.10E+00
			-25.00		339.85E+00
			-24.50		340.28E+00
			-24.00		340.70E+00
			-23.50		341.14E+00
			-23.00		341.60E+00
			-22.50		342.54E+00
			-22.00		343.48E+00
			-21.50		343.79E+00
			-21.00		344.07E+00
			-20.50		344.52E+00
			-20.00		344.93E+00
			-19.50		345.54E+00
			-19.00		346.19E+00
			-18.50		346.67E+00
			-18.00		347.08E+00
			-17.50		347.07E+00
			-17.00		347.07E+00
			-16.50		347.80E+00
			-16.00		348.56E+00
			-15.50		348.94E+00
			-15.00		349.26E+00
			-14.50		349.49E+00
			-14.00		349.77E+00
			-13.50		350.19E+00
			-13.00		350.58E+00
			-12.50		350.82E+00
			-12.00		351.04E+00
			-11.50		351.37E+00
			-11.00		351.63E+00
			-10.50		351.39E+00
			-10.00		351.19E+00
			-9.50		351.65E+00
			-9.00		352.17E+00
			-8.50		352.53E+00
			-8.00		352.85E+00
			-7.50		353.27E+00
			-7.00		353.65E+00
			-6.50		353.49E+00
			-6.00		353.29E+00
			-5.50		353.42E+00
			-5.00		353.59E+00
			-4.50		353.79E+00
			-4.00		354.03E+00
			-3.50		354.33E+00
			-3.00		354.59E+00
			-2.50		354.60E+00
			-2.00		354.60E+00
			-1.50		354.70E+00
			-1.00		354.73E+00
			-0.50		354.63E+00
			0.00		354.55E+00
			0.50		354.63E+00
			1.00		354.73E+00
			1.50		354.70E+00
			2.00		354.60E+00
			2.50		354.60E+00
			3.00		354.59E+00
			3.50		354.33E+00
			4.00		354.03E+00
			4.50		353.79E+00
			5.00		353.59E+00
			5.50		353.42E+00
			6.00		353.29E+00
			6.50		353.49E+00
			7.00		353.65E+00
			7.50		353.27E+00
			8.00		352.85E+00
			8.50		352.53E+00
			9.00		352.17E+00
			9.50		351.65E+00
			10.00		351.19E+00
			10.50		351.39E+00
			11.00		351.63E+00
			11.50		351.37E+00
			12.00		351.04E+00
			12.50		350.82E+00
			13.00		350.58E+00
			13.50		350.19E+00
			14.00		349.77E+00
			14.50		349.49E+00
			15.00		349.26E+00
			15.50		348.94E+00
			16.00		348.56E+00
			16.50		347.80E+00
			17.00		347.07E+00
			17.50		347.07E+00
			18.00		347.08E+00
			18.50		346.67E+00
			19.00		346.19E+00
			19.50		345.54E+00
			20.00		344.93E+00
			20.50		344.52E+00
			21.00		344.07E+00
			21.50		343.79E+00
			22.00		343.48E+00
			22.50		342.54E+00
			23.00		341.60E+00
			23.50		341.14E+00
			24.00		340.70E+00
			24.50		340.28E+00
			25.00		339.85E+00
			25.50		339.10E+00
			26.00		338.38E+00
			26.50		338.08E+00
			27.00		337.71E+00
			27.50		336.83E+00
			28.00		335.91E+00
			28.50		334.92E+00
			29.00		333.92E+00
			29.50		333.45E+00
			30.00		333.08E+00
			30.50		332.43E+00
			31.00		331.72E+00
			31.50		330.89E+00
			32.00		330.01E+00
			32.50		329.04E+00
			33.00		328.08E+00
			33.50		327.10E+00
			34.00		326.11E+00
			34.50		325.21E+00
			35.00		324.37E+00
			35.50		323.64E+00
			36.00		322.84E+00
			36.50		321.73E+00
			37.00		320.61E+00
			37.50		319.43E+00
			38.00		318.20E+00
			38.50		316.78E+00
			39.00		315.40E+00
			39.50		314.10E+00
			40.00		312.77E+00
			40.50		311.32E+00
			41.00		309.83E+00
			41.50		307.87E+00
			42.00		305.78E+00
			42.50		303.17E+00
			43.00		300.46E+00
			43.50		297.01E+00
			44.00		293.33E+00
			44.50		288.64E+00
			45.00		283.78E+00
			45.50		276.99E+00
			46.00		269.72E+00
			46.50		259.55E+00
			47.00		248.80E+00
			47.50		234.86E+00
			48.00		220.30E+00
			48.50		204.10E+00
			49.00		187.67E+00
			49.50		170.52E+00
			50.00		153.29E+00
			50.50		136.14E+00
			51.00		119.23E+00
			51.50		104.10E+00
			52.00		89.374E+00
			52.50		76.853E+00
			53.00		65.025E+00
			53.50		56.605E+00
			54.00		48.795E+00
			54.50		43.703E+00
			55.00		38.980E+00
			55.50		35.974E+00
			56.00		33.257E+00
			56.50		31.286E+00
			57.00		29.448E+00
			57.50		28.057E+00
			58.00		26.743E+00
			58.50		25.656E+00
			59.00		24.615E+00
			59.50		23.740E+00
			60.00		22.891E+00
			60.50		22.256E+00
			61.00		21.638E+00
			61.50		21.010E+00
			62.00		20.402E+00
			62.50		19.881E+00
			63.00		19.361E+00
			63.50		18.828E+00
			64.00		18.305E+00
			64.50		17.908E+00
			65.00		17.530E+00
			65.50		17.164E+00
			66.00		16.792E+00
			66.50		16.389E+00
			67.00		15.990E+00
			67.50		15.705E+00
			68.00		15.425E+00
			68.50		15.115E+00
			69.00		14.799E+00
			69.50		14.470E+00
			70.00		14.160E+00
			70.50		13.907E+00
			71.00		13.649E+00
			71.50		13.420E+00
			72.00		13.191E+00
			72.50		12.945E+00
			73.00		12.708E+00
			73.50		12.459E+00
			74.00		12.196E+00
			74.50		12.024E+00
			75.00		11.875E+00
			75.50		11.667E+00
			76.00		11.449E+00
			76.50		11.247E+00
			77.00		11.041E+00
			77.50		10.804E+00
			78.00		10.582E+00
			78.50		10.479E+00
			79.00		10.372E+00
			79.50		10.198E+00
			80.00		10.022E+00
			80.50		9.8587E+00
			81.00		9.7005E+00
			81.50		9.5781E+00
			82.00		9.4517E+00
			82.50		9.2790E+00
			83.00		9.1082E+00
			83.50		8.9951E+00
			84.00		8.8894E+00
			84.50		8.7998E+00
			85.00		8.7077E+00
			85.50		8.5770E+00
			86.00		8.4334E+00
			86.50		8.2649E+00
			87.00		8.1185E+00
			87.50		8.0277E+00
			88.00		7.9227E+00
			88.50		7.7890E+00
			89.00		7.6704E+00
			89.50		7.6277E+00
			90.00		7.7274E+00
		END_DATA
	END_SCAN  2
	BEGIN_SCAN  3
		TASK_NAME=tba PDD Profiles
		PROGRAM=WaterTankScans
		COMMENT=Gemelli
		MEAS_DATE=08-Feb-2021 09:38:10
		LINAC=MRIdian
		MODALITY=X
		ISOCENTER=900.00
		INPLANE_AXIS=Y
		CROSSPLANE_AXIS=X
		DEPTH_AXIS=Depth
		INPLANE_AXIS_DIR=TARGET_GUN
		CROSSPLANE_AXIS_DIR=LEFT_RIGHT
		DEPTH_AXIS_DIR=UP_DOWN
		ENERGY=6.00
		NOMINAL_DMAX=15.00
		SSD=850.00
		SCD=450.00
		WEDGE_ANGLE=0.00
		FIELD_INPLANE=99.60
		FIELD_CROSSPLANE=99.60
		FIELD_TYPE=RECTANGULAR
		GANTRY=0.00
		GANTRY_UPRIGHT_POSITION=0
		GANTRY_ROTATION=CW
		COLL_ANGLE=0.00
		COLL_OFFSET_INPLANE=0.00
		COLL_OFFSET_CROSSPLANE=0.00
		SCAN_DEVICE=BeamScan
		SCAN_DEVICE_SETUP=BARA_LEFT_RIGHT
		ELECTROMETER=BeamScan
		RANGE_FIELD=LOW
		RANGE_REFERENCE=MEDIUM
		DETECTOR=THIMBLE_CHAMBER
		DETECTOR_RADIUS=2.40
		DETECTOR_NAME=A28MR
		DETECTOR_SN=-
		DETECTOR_CALIBRATION=588000000.00
		DETECTOR_IS_CALIBRATED=0
		DETECTOR_REFERENCE=THIMBLE_CHAMBER
		DETECTOR_REFERENCE_RADIUS=2.75
		DETECTOR_REFERENCE_NAME=A28MR
		DETECTOR_REFERENCE_SN=—
		DETECTOR_REFERENCE_IS_CALIBRATED=0
		DETECTOR_REFERENCE_CALIBRATION=303000000.00
		DETECTOR_HV=300.0
		DETECTOR_REFERENCE_HV=300.0
		DETECTOR_ORIENTATION=HORIZONTAL
		FILTER=FFF
		SCAN_SPEED_PROFILE=10.00
		SCAN_PROF_SPEED_DEP=DEPTH
		SCAN_SPEED_PDD=0.00
		SCAN_PDD_SPEED_DEP=ENERGY
		DETECTOR_TYPE=A28MR
		REF_FIELD_DEPTH=220.00
		REF_FIELD_DEFINED=ISOCENTER
		REF_FIELD_INPLANE=100.00
		REF_FIELD_CROSSPLANE=100.00
		REF_SCAN_POSITIONS=-85.00;-84.00;-83.00;-82.00;-81.00;-80.00;-79.00;-78.00;-77.00;-76.00;-75.00;-74.00;-73.00;-72.00;-71.00;-70.00;-69.00;-68.00;-67.00;-66.00;-65.00;-64.00;-63.00;-62.00;-61.00;-60.00;-59.00;-58.00;-57.00;-56.00;-55.00;-54.00;-53.00;-52.00;-51.00;-50.00;-49.00;-48.00;-47.00;-46.00;-45.00;-44.00;-43.00;-42.00;-41.00;-40.00;-39.00;-38.00;-37.00;-36.00;-35.00;-34.00;-33.00;-32.00;-31.00;-30.00;-29.00;-28.00;-27.00;-26.00;-25.00;-24.00;-23.00;-22.00;-21.00;-20.00;-19.00;-18.00;-17.00;-16.00;-15.00;-14.00;-13.00;-12.00;-11.00;-10.00;-9.00;-8.00;-7.00;-6.00;-5.00;-4.00;-3.00;-2.00;-1.00;0.00;1.00;2.00;3.00;4.00;5.00;6.00;7.00;8.00;9.00;10.00;11.00;12.00;13.00;14.00;15.00;16.00;17.00;18.00;19.00;20.00;21.00;22.00;23.00;24.00;25.00;26.00;27.00;28.00;29.00;30.00;31.00;32.00;33.00;34.00;35.00;36.00;37.00;38.00;39.00;40.00;41.00;42.00;43.00;44.00;45.00;46.00;47.00;48.00;49.00;50.00;51.00;52.00;53.00;54.00;55.00;56.00;57.00;58.00;59.00;60.00;61.00;62.00;63.00;64.00;65.00;66.00;67.00;68.00;69.00;70.00;71.00;72.00;73.00;74.00;75.00;76.00;77.00;78.00;79.00;80.00;81.00;82.00;83.00;84.00;85.00;
		REF_OVERSCAN_FACTOR=1.00
		SCAN_CURVETYPE=CROSSPLANE_PROFILE
		SCAN_DEPTH=100.00
		SCAN_OFFAXIS_INPLANE=0.00
		SCAN_OFFAXIS_CROSSPLANE=0.00
		SCAN_ANGLE=0.00
		SCAN_DIAGONAL=NOT_DIAGONAL
		SCAN_DIRECTION=POSITIVE
		MEAS_MEDIUM=WATER
		MEAS_PRESET=MEAS_CONTINUOUS_REFERENCE_SCAN
		MEAS_TIME=0.100
		MEAS_UNIT=A.U.
		INCLINATION_ANGLE=0.00
		PRESSURE=1013.25
		TEMPERATURE=20.00
		NORM_TEMPERATURE=20.00
		CORRECTION_FACTOR=1.0000
		EXPECTED_MAX_DOSE_RATE=3.00
		EPOM_DEPTH_SHIFT=0.2
		EPOM_MODE=SHIFT_PROTOCOL
		CORRECTIONS=CAX_CORR;INTERPOLATED_CORR;SYMMETRY_CORR;
		BEGIN_DATA
			-90.00		9.8828E+00
			-89.50		9.8524E+00
			-89.00		9.9496E+00
			-88.50		10.054E+00
			-88.00		10.194E+00
			-87.50		10.335E+00
			-87.00		10.500E+00
			-86.50		10.681E+00
			-86.00		10.815E+00
			-85.50		10.927E+00
			-85.00		11.061E+00
			-84.50		11.216E+00
			-84.00		11.411E+00
			-83.50		11.604E+00
			-83.00		11.751E+00
			-82.50		11.911E+00
			-82.00		12.117E+00
			-81.50		12.309E+00
			-81.00		12.509E+00
			-80.50		12.729E+00
			-80.00		12.952E+00
			-79.50		13.158E+00
			-79.00		13.280E+00
			-78.50		13.394E+00
			-78.00		13.608E+00
			-77.50		13.856E+00
			-77.00		14.112E+00
			-76.50		14.358E+00
			-76.00		14.590E+00
			-75.50		14.828E+00
			-75.00		15.074E+00
			-74.50		15.318E+00
			-74.00		15.625E+00
			-73.50		15.941E+00
			-73.00		16.164E+00
			-72.50		16.372E+00
			-72.00		16.635E+00
			-71.50		16.944E+00
			-71.00		17.320E+00
			-70.50		17.688E+00
			-70.00		17.991E+00
			-69.50		18.288E+00
			-69.00		18.624E+00
			-68.50		18.972E+00
			-68.00		19.353E+00
			-67.50		19.744E+00
			-67.00		20.112E+00
			-66.50		20.481E+00
			-66.00		20.908E+00
			-65.50		21.378E+00
			-65.00		21.895E+00
			-64.50		22.376E+00
			-64.00		22.833E+00
			-63.50		23.341E+00
			-63.00		23.962E+00
			-62.50		24.614E+00
			-62.00		25.311E+00
			-61.50		26.027E+00
			-61.00		26.846E+00
			-60.50		27.711E+00
			-60.00		28.766E+00
			-59.50		29.952E+00
			-59.00		31.454E+00
			-58.50		33.095E+00
			-58.00		35.270E+00
			-57.50		37.727E+00
			-57.00		41.076E+00
			-56.50		44.981E+00
			-56.00		50.516E+00
			-55.50		56.893E+00
			-55.00		65.162E+00
			-54.50		74.058E+00
			-54.00		84.434E+00
			-53.50		95.238E+00
			-53.00		106.83E+00
			-52.50		118.66E+00
			-52.00		130.81E+00
			-51.50		142.96E+00
			-51.00		154.82E+00
			-50.50		166.30E+00
			-50.00		176.61E+00
			-49.50		186.43E+00
			-49.00		194.75E+00
			-48.50		202.33E+00
			-48.00		207.86E+00
			-47.50		212.79E+00
			-47.00		216.51E+00
			-46.50		219.96E+00
			-46.00		222.82E+00
			-45.50		225.45E+00
			-45.00		227.57E+00
			-44.50		229.54E+00
			-44.00		231.17E+00
			-43.50		232.75E+00
			-43.00		234.36E+00
			-42.50		235.83E+00
			-42.00		236.85E+00
			-41.50		237.97E+00
			-41.00		239.30E+00
			-40.50		240.56E+00
			-40.00		241.37E+00
			-39.50		242.04E+00
			-39.00		242.86E+00
			-38.50		243.85E+00
			-38.00		244.81E+00
			-37.50		245.69E+00
			-37.00		246.48E+00
			-36.50		247.17E+00
			-36.00		247.76E+00
			-35.50		248.39E+00
			-35.00		248.95E+00
			-34.50		249.55E+00
			-34.00		250.36E+00
			-33.50		251.15E+00
			-33.00		251.79E+00
			-32.50		252.41E+00
			-32.00		252.99E+00
			-31.50		253.63E+00
			-31.00		254.45E+00
			-30.50		255.23E+00
			-30.00		255.70E+00
			-29.50		256.07E+00
			-29.00		256.40E+00
			-28.50		256.83E+00
			-28.00		257.36E+00
			-27.50		257.96E+00
			-27.00		258.50E+00
			-26.50		258.89E+00
			-26.00		259.23E+00
			-25.50		259.71E+00
			-25.00		260.14E+00
			-24.50		260.51E+00
			-24.00		261.05E+00
			-23.50		261.65E+00
			-23.00		262.17E+00
			-22.50		262.73E+00
			-22.00		263.11E+00
			-21.50		263.48E+00
			-21.00		263.92E+00
			-20.50		264.29E+00
			-20.00		264.44E+00
			-19.50		264.59E+00
			-19.00		264.96E+00
			-18.50		265.45E+00
			-18.00		265.89E+00
			-17.50		266.24E+00
			-17.00		266.47E+00
			-16.50		266.78E+00
			-16.00		267.14E+00
			-15.50		267.34E+00
			-15.00		267.46E+00
			-14.50		267.73E+00
			-14.00		268.08E+00
			-13.50		268.33E+00
			-13.00		268.62E+00
			-12.50		268.96E+00
			-12.00		269.10E+00
			-11.50		269.17E+00
			-11.00		269.41E+00
			-10.50		269.73E+00
			-10.00		270.04E+00
			-9.50		270.34E+00
			-9.00		270.25E+00
			-8.50		270.03E+00
			-8.00		270.40E+00
			-7.50		271.00E+00
			-7.00		271.10E+00
			-6.50		271.01E+00
			-6.00		271.02E+00
			-5.50		271.10E+00
			-5.00		271.13E+00
			-4.50		271.02E+00
			-4.00		271.14E+00
			-3.50		271.48E+00
			-3.00		271.60E+00
