BEGIN_SCAN_DATA
	FORMAT=CC-Export V1.9                  
	FILE_CREATION_DATE=15-Mar-2022 16:19:09
	LAST_MODIFIED=15-Mar-2022 16:19:09
	BEGIN_SCAN  1
		TASK_NAME=tba PDD Profiles
		PROGRAM=WaterTankScans
		COMMENT=Average
		MEAS_DATE=15-Mar-2022 16:15:29
		LINAC=MRIdian
		MODALITY=X
		ISOCENTER=900.00
		INPLANE_AXIS=Y
		CROSSPLANE_AXIS=X
		DEPTH_AXIS=Depth
		INPLANE_AXIS_DIR=TARGET_GUN
		CROSSPLANE_AXIS_DIR=LEFT_RIGHT
		DEPTH_AXIS_DIR=UP_DOWN
		ENERGY=6.00
		NOMINAL_DMAX=15.00
		SSD=850.00
		SCD=450.00
		WEDGE_ANGLE=0.00
		FIELD_INPLANE=100.00
		FIELD_CROSSPLANE=100.00
		FIELD_TYPE=RECTANGULAR
		GANTRY_UPRIGHT_POSITION=0
		GANTRY_ROTATION=CW
		COLL_ANGLE=0.00
		COLL_OFFSET_INPLANE=0.00
		COLL_OFFSET_CROSSPLANE=0.00
		SCAN_DEVICE=BeamScan
		SCAN_DEVICE_SETUP=BARA_LEFT_RIGHT
		ELECTROMETER=BeamScan
		RANGE_FIELD=LOW
		RANGE_REFERENCE=MEDIUM
		DETECTOR=THIMBLE_CHAMBER
		DETECTOR_RADIUS=2.40
		DETECTOR_NAME=A28MR
		DETECTOR_SN=-
		DETECTOR_CALIBRATION=588000000.00
		DETECTOR_IS_CALIBRATED=0
		DETECTOR_REFERENCE=THIMBLE_CHAMBER
		DETECTOR_REFERENCE_RADIUS=2.75
		DETECTOR_REFERENCE_NAME=A28MR
		DETECTOR_REFERENCE_SN=—
		DETECTOR_REFERENCE_IS_CALIBRATED=0
		DETECTOR_REFERENCE_CALIBRATION=303000000.00
		DETECTOR_HV=300.0
		DETECTOR_REFERENCE_HV=300.0
		DETECTOR_ORIENTATION=HORIZONTAL
		FILTER=FFF
		SCAN_SPEED_PROFILE=10.00
		SCAN_PROF_SPEED_DEP=DEPTH
		SCAN_SPEED_PDD=0.00
		SCAN_PDD_SPEED_DEP=ENERGY
		DETECTOR_TYPE=A28MR
		REF_FIELD_DEPTH=50.00
		REF_FIELD_DEFINED=ISOCENTER
		REF_FIELD_INPLANE=100.00
		REF_FIELD_CROSSPLANE=100.00
		REF_SCAN_POSITIONS=-85.00;-84.00;-83.00;-82.00;-81.00;-80.00;-79.00;-78.00;-77.00;-76.00;-75.00;-74.00;-73.00;-72.00;-71.00;-70.00;-69.00;-68.00;-67.00;-66.00;-65.00;-64.00;-63.00;-62.00;-61.00;-60.00;-59.00;-58.00;-57.00;-56.00;-55.00;-54.00;-53.00;-52.00;-51.00;-50.00;-49.00;-48.00;-47.00;-46.00;-45.00;-44.00;-43.00;-42.00;-41.00;-40.00;-39.00;-38.00;-37.00;-36.00;-35.00;-34.00;-33.00;-32.00;-31.00;-30.00;-29.00;-28.00;-27.00;-26.00;-25.00;-24.00;-23.00;-22.00;-21.00;-20.00;-19.00;-18.00;-17.00;-16.00;-15.00;-14.00;-13.00;-12.00;-11.00;-10.00;-9.00;-8.00;-7.00;-6.00;-5.00;-4.00;-3.00;-2.00;-1.00;0.00;1.00;2.00;3.00;4.00;5.00;6.00;7.00;8.00;9.00;10.00;11.00;12.00;13.00;14.00;15.00;16.00;17.00;18.00;19.00;20.00;21.00;22.00;23.00;24.00;25.00;26.00;27.00;28.00;29.00;30.00;31.00;32.00;33.00;34.00;35.00;36.00;37.00;38.00;39.00;40.00;41.00;42.00;43.00;44.00;45.00;46.00;47.00;48.00;49.00;50.00;51.00;52.00;53.00;54.00;55.00;56.00;57.00;58.00;59.00;60.00;61.00;62.00;63.00;64.00;65.00;66.00;67.00;68.00;69.00;70.00;71.00;72.00;73.00;74.00;75.00;76.00;77.00;78.00;79.00;80.00;81.00;82.00;83.00;84.00;85.00;
		REF_OVERSCAN_FACTOR=1.00
		SCAN_CURVETYPE=CROSSPLANE_PROFILE
		SCAN_DEPTH=20.00
		SCAN_OFFAXIS_INPLANE=0.00
		SCAN_OFFAXIS_CROSSPLANE=0.00
		SCAN_ANGLE=0.00
		SCAN_DIAGONAL=NOT_DIAGONAL
		SCAN_DIRECTION=POSITIVE
		MEAS_MEDIUM=WATER
		MEAS_PRESET=MEAS_CONTINUOUS_REFERENCE_SCAN
		MEAS_TIME=0.100
		MEAS_UNIT=A.U.
		INCLINATION_ANGLE=0.00
		PRESSURE=1013.25
		TEMPERATURE=20.00
		NORM_TEMPERATURE=20.00
		CORRECTION_FACTOR=1.0000
		EXPECTED_MAX_DOSE_RATE=3.00
		EPOM_DEPTH_SHIFT=0.2
		EPOM_MODE=SHIFT_PROTOCOL
		CORRECTIONS=SMOOTHED_CORR;CAX_CORR;INTERPOLATED_CORR;SYMMETRY_CORR;ADD_CURVES_CORR;
		BEGIN_DATA
			-90.00		3.7720E+00
			-89.50		3.8434E+00
			-89.00		3.9010E+00
			-88.50		3.9533E+00
			-88.00		3.9984E+00
			-87.50		4.0412E+00
			-87.00		4.0848E+00
			-86.50		4.1315E+00
			-86.00		4.1767E+00
			-85.50		4.2224E+00
			-85.00		4.2738E+00
			-84.50		4.3308E+00
			-84.00		4.3886E+00
			-83.50		4.4491E+00
			-83.00		4.5037E+00
			-82.50		4.5620E+00
			-82.00		4.6316E+00
			-81.50		4.7090E+00
			-81.00		4.7823E+00
			-80.50		4.8410E+00
			-80.00		7.3697E+00
			-79.50		7.4285E+00
			-79.00		7.5315E+00
			-78.50		7.6586E+00
			-78.00		7.7856E+00
			-77.50		7.8732E+00
			-77.00		7.9632E+00
			-76.50		8.1062E+00
			-76.00		8.2508E+00
			-75.50		8.3594E+00
			-75.00		8.4692E+00
			-74.50		8.5972E+00
			-74.00		8.7248E+00
			-73.50		8.8839E+00
			-73.00		9.0459E+00
			-72.50		9.1754E+00
			-72.00		9.3088E+00
			-71.50		9.5078E+00
			-71.00		9.7071E+00
			-70.50		9.8544E+00
			-70.00		9.9961E+00
			-69.50		10.199E+00
			-69.00		10.413E+00
			-68.50		10.576E+00
			-68.00		10.737E+00
			-67.50		10.967E+00
			-67.00		11.205E+00
			-66.50		11.451E+00
			-66.00		11.699E+00
			-65.50		11.933E+00
			-65.00		12.172E+00
			-64.50		12.465E+00
			-64.00		12.767E+00
			-63.50		13.070E+00
			-63.00		13.378E+00
			-62.50		13.725E+00
			-62.00		14.078E+00
			-61.50		14.490E+00
			-61.00		14.917E+00
			-60.50		15.370E+00
			-60.00		15.843E+00
			-59.50		16.386E+00
			-59.00		16.936E+00
			-58.50		17.597E+00
			-58.00		18.290E+00
			-57.50		19.097E+00
			-57.00		19.954E+00
			-56.50		21.047E+00
			-56.00		22.205E+00
			-55.50		23.661E+00
			-55.00		25.220E+00
			-54.50		27.387E+00
			-54.00		29.786E+00
			-53.50		33.392E+00
			-53.00		37.486E+00
			-52.50		43.926E+00
			-52.00		51.148E+00
			-51.50		62.123E+00
			-51.00		74.164E+00
			-50.50		90.637E+00
			-50.00		108.11E+00
			-49.50		128.50E+00
			-49.00		149.54E+00
			-48.50		172.83E+00
			-48.00		196.38E+00
			-47.50		220.11E+00
			-47.00		243.74E+00
			-46.50		265.96E+00
			-46.00		287.61E+00
			-45.50		306.40E+00
			-45.00		324.30E+00
			-44.50		338.27E+00
			-44.00		351.36E+00
			-43.50		360.56E+00
			-43.00		368.88E+00
			-42.50		374.70E+00
			-42.00		379.99E+00
			-41.50		383.96E+00
			-41.00		387.67E+00
			-40.50		390.55E+00
			-40.00		393.18E+00
			-39.50		395.16E+00
			-39.00		397.09E+00
			-38.50		399.10E+00
			-38.00		401.05E+00
			-37.50		402.52E+00
			-37.00		403.92E+00
			-36.50		405.32E+00
			-36.00		406.75E+00
			-35.50		408.07E+00
			-35.00		409.30E+00
			-34.50		410.46E+00
			-34.00		411.63E+00
			-33.50		412.68E+00
			-33.00		413.71E+00
			-32.50		414.73E+00
			-32.00		415.75E+00
			-31.50		416.58E+00
			-31.00		417.37E+00
			-30.50		418.37E+00
			-30.00		419.39E+00
			-29.50		420.20E+00
			-29.00		421.02E+00
			-28.50		422.02E+00
			-28.00		422.97E+00
			-27.50		423.50E+00
			-27.00		424.03E+00
			-26.50		425.05E+00
			-26.00		426.07E+00
			-25.50		426.67E+00
			-25.00		427.33E+00
			-24.50		428.27E+00
			-24.00		429.18E+00
			-23.50		429.84E+00
			-23.00		430.43E+00
			-22.50		430.99E+00
			-22.00		431.58E+00
			-21.50		432.54E+00
			-21.00		433.46E+00
			-20.50		434.09E+00
			-20.00		434.70E+00
			-19.50		435.28E+00
			-19.00		435.80E+00
			-18.50		436.45E+00
			-18.00		437.15E+00
			-17.50		437.61E+00
			-17.00		438.05E+00
			-16.50		438.46E+00
			-16.00		438.86E+00
			-15.50		439.45E+00
			-15.00		440.03E+00
			-14.50		440.46E+00
			-14.00		440.86E+00
			-13.50		441.20E+00
			-13.00		441.57E+00
			-12.50		441.78E+00
			-12.00		442.00E+00
			-11.50		442.53E+00
			-11.00		443.04E+00
			-10.50		443.35E+00
			-10.00		443.73E+00
			-9.50		444.23E+00
			-9.00		444.64E+00
			-8.50		444.70E+00
			-8.00		444.81E+00
			-7.50		445.26E+00
			-7.00		445.70E+00
			-6.50		445.89E+00
			-6.00		446.00E+00
			-5.50		446.09E+00
			-5.00		446.19E+00
			-4.50		446.28E+00
			-4.00		446.41E+00
			-3.50		446.87E+00
			-3.00		447.33E+00
			-2.50		447.33E+00
			-2.00		447.28E+00
			-1.50		447.35E+00
			-1.00		447.40E+00
			-0.50		447.34E+00
			0.00		447.29E+00
			0.50		447.34E+00
			1.00		447.40E+00
			1.50		447.35E+00
			2.00		447.28E+00
			2.50		447.33E+00
			3.00		447.33E+00
			3.50		446.87E+00
			4.00		446.41E+00
			4.50		446.28E+00
			5.00		446.19E+00
			5.50		446.09E+00
			6.00		446.00E+00
			6.50		445.89E+00
			7.00		445.70E+00
			7.50		445.26E+00
			8.00		444.81E+00
			8.50		444.70E+00
			9.00		444.64E+00
			9.50		444.23E+00
			10.00		443.73E+00
			10.50		443.35E+00
			11.00		443.04E+00
			11.50		442.53E+00
			12.00		442.00E+00
			12.50		441.78E+00
			13.00		441.57E+00
			13.50		441.20E+00
			14.00		440.86E+00
			14.50		440.46E+00
			15.00		440.03E+00
			15.50		439.45E+00
			16.00		438.86E+00
			16.50		438.46E+00
			17.00		438.05E+00
			17.50		437.61E+00
			18.00		437.15E+00
			18.50		436.45E+00
			19.00		435.80E+00
			19.50		435.28E+00
			20.00		434.70E+00
			20.50		434.09E+00
			21.00		433.46E+00
			21.50		432.54E+00
			22.00		431.58E+00
			22.50		430.99E+00
			23.00		430.43E+00
			23.50		429.84E+00
			24.00		429.18E+00
			24.50		428.27E+00
			25.00		427.33E+00
			25.50		426.67E+00
			26.00		426.07E+00
			26.50		425.05E+00
			27.00		424.03E+00
			27.50		423.50E+00
			28.00		422.97E+00
			28.50		422.02E+00
			29.00		421.02E+00
			29.50		420.20E+00
			30.00		419.39E+00
			30.50		418.37E+00
			31.00		417.37E+00
			31.50		416.58E+00
			32.00		415.75E+00
			32.50		414.73E+00
			33.00		413.71E+00
			33.50		412.68E+00
			34.00		411.63E+00
			34.50		410.46E+00
			35.00		409.30E+00
			35.50		408.07E+00
			36.00		406.75E+00
			36.50		405.32E+00
			37.00		403.92E+00
			37.50		402.52E+00
			38.00		401.05E+00
			38.50		399.10E+00
			39.00		397.09E+00
			39.50		395.16E+00
			40.00		393.18E+00
			40.50		390.55E+00
			41.00		387.67E+00
			41.50		383.96E+00
			42.00		379.99E+00
			42.50		374.70E+00
			43.00		368.88E+00
			43.50		360.56E+00
			44.00		351.36E+00
			44.50		338.27E+00
			45.00		324.30E+00
			45.50		306.40E+00
			46.00		287.61E+00
			46.50		265.96E+00
			47.00		243.74E+00
			47.50		220.11E+00
			48.00		196.38E+00
			48.50		172.83E+00
			49.00		149.54E+00
			49.50		128.50E+00
			50.00		108.11E+00
			50.50		90.637E+00
			51.00		74.164E+00
			51.50		62.123E+00
			52.00		51.148E+00
			52.50		43.926E+00
			53.00		37.486E+00
			53.50		33.392E+00
			54.00		29.786E+00
			54.50		27.387E+00
			55.00		25.220E+00
			55.50		23.661E+00
			56.00		22.205E+00
			56.50		21.047E+00
			57.00		19.954E+00
			57.50		19.097E+00
			58.00		18.290E+00
			58.50		17.597E+00
			59.00		16.936E+00
			59.50		16.386E+00
			60.00		15.843E+00
			60.50		15.370E+00
			61.00		14.917E+00
			61.50		14.490E+00
			62.00		14.078E+00
			62.50		13.725E+00
			63.00		13.378E+00
			63.50		13.070E+00
			64.00		12.767E+00
			64.50		12.465E+00
			65.00		12.172E+00
			65.50		11.933E+00
			66.00		11.699E+00
			66.50		11.451E+00
			67.00		11.205E+00
			67.50		10.967E+00
			68.00		10.737E+00
			68.50		10.576E+00
			69.00		10.413E+00
			69.50		10.199E+00
			70.00		9.9961E+00
			70.50		9.8544E+00
			71.00		9.7071E+00
			71.50		9.5078E+00
			72.00		9.3088E+00
			72.50		9.1754E+00
			73.00		9.0459E+00
			73.50		8.8839E+00
			74.00		8.7248E+00
			74.50		8.5972E+00
			75.00		8.4692E+00
			75.50		8.3594E+00
			76.00		8.2508E+00
			76.50		8.1062E+00
			77.00		7.9632E+00
			77.50		7.8732E+00
			78.00		7.7856E+00
			78.50		7.6586E+00
			79.00		7.5315E+00
			79.50		7.4285E+00
			80.00		7.3697E+00
			80.50		4.8410E+00
			81.00		4.7823E+00
			81.50		4.7090E+00
			82.00		4.6316E+00
			82.50		4.5620E+00
			83.00		4.5037E+00
			83.50		4.4491E+00
			84.00		4.3886E+00
			84.50		4.3308E+00
			85.00		4.2738E+00
			85.50		4.2224E+00
			86.00		4.1767E+00
			86.50		4.1315E+00
			87.00		4.0848E+00
			87.50		4.0412E+00
			88.00		3.9984E+00
			88.50		3.9533E+00
			89.00		3.9010E+00
			89.50		3.8434E+00
			90.00		3.7720E+00
		END_DATA
	END_SCAN  1
	BEGIN_SCAN  2
		TASK_NAME=tba PDD Profiles
		PROGRAM=WaterTankScans
		COMMENT=Average
		MEAS_DATE=15-Mar-2022 16:15:56
		LINAC=MRIdian
		MODALITY=X
		ISOCENTER=900.00
		INPLANE_AXIS=Y
		CROSSPLANE_AXIS=X
		DEPTH_AXIS=Depth
		INPLANE_AXIS_DIR=TARGET_GUN
		CROSSPLANE_AXIS_DIR=LEFT_RIGHT
		DEPTH_AXIS_DIR=UP_DOWN
		ENERGY=6.00
		NOMINAL_DMAX=15.00
		SSD=850.00
		SCD=450.00
		WEDGE_ANGLE=0.00
		FIELD_INPLANE=100.00
		FIELD_CROSSPLANE=100.00
		FIELD_TYPE=RECTANGULAR
		GANTRY_UPRIGHT_POSITION=0
		GANTRY_ROTATION=CW
		COLL_ANGLE=0.00
		COLL_OFFSET_INPLANE=0.00
		COLL_OFFSET_CROSSPLANE=0.00
		SCAN_DEVICE=BeamScan
		SCAN_DEVICE_SETUP=BARA_LEFT_RIGHT
		ELECTROMETER=BeamScan
		RANGE_FIELD=LOW
		RANGE_REFERENCE=MEDIUM
		DETECTOR=THIMBLE_CHAMBER
		DETECTOR_RADIUS=2.40
		DETECTOR_NAME=A28MR
		DETECTOR_SN=-
		DETECTOR_CALIBRATION=588000000.00
		DETECTOR_IS_CALIBRATED=0
		DETECTOR_REFERENCE=THIMBLE_CHAMBER
		DETECTOR_REFERENCE_RADIUS=2.75
		DETECTOR_REFERENCE_NAME=A28MR
		DETECTOR_REFERENCE_SN=—
		DETECTOR_REFERENCE_IS_CALIBRATED=0
		DETECTOR_REFERENCE_CALIBRATION=303000000.00
		DETECTOR_HV=300.0
		DETECTOR_REFERENCE_HV=300.0
		DETECTOR_ORIENTATION=HORIZONTAL
		FILTER=FFF
		SCAN_SPEED_PROFILE=10.00
		SCAN_PROF_SPEED_DEP=DEPTH
		SCAN_SPEED_PDD=0.00
		SCAN_PDD_SPEED_DEP=ENERGY
		DETECTOR_TYPE=A28MR
		REF_FIELD_DEPTH=50.00
		REF_FIELD_DEFINED=ISOCENTER
		REF_FIELD_INPLANE=100.00
		REF_FIELD_CROSSPLANE=100.00
		REF_SCAN_POSITIONS=-85.00;-84.00;-83.00;-82.00;-81.00;-80.00;-79.00;-78.00;-77.00;-76.00;-75.00;-74.00;-73.00;-72.00;-71.00;-70.00;-69.00;-68.00;-67.00;-66.00;-65.00;-64.00;-63.00;-62.00;-61.00;-60.00;-59.00;-58.00;-57.00;-56.00;-55.00;-54.00;-53.00;-52.00;-51.00;-50.00;-49.00;-48.00;-47.00;-46.00;-45.00;-44.00;-43.00;-42.00;-41.00;-40.00;-39.00;-38.00;-37.00;-36.00;-35.00;-34.00;-33.00;-32.00;-31.00;-30.00;-29.00;-28.00;-27.00;-26.00;-25.00;-24.00;-23.00;-22.00;-21.00;-20.00;-19.00;-18.00;-17.00;-16.00;-15.00;-14.00;-13.00;-12.00;-11.00;-10.00;-9.00;-8.00;-7.00;-6.00;-5.00;-4.00;-3.00;-2.00;-1.00;0.00;1.00;2.00;3.00;4.00;5.00;6.00;7.00;8.00;9.00;10.00;11.00;12.00;13.00;14.00;15.00;16.00;17.00;18.00;19.00;20.00;21.00;22.00;23.00;24.00;25.00;26.00;27.00;28.00;29.00;30.00;31.00;32.00;33.00;34.00;35.00;36.00;37.00;38.00;39.00;40.00;41.00;42.00;43.00;44.00;45.00;46.00;47.00;48.00;49.00;50.00;51.00;52.00;53.00;54.00;55.00;56.00;57.00;58.00;59.00;60.00;61.00;62.00;63.00;64.00;65.00;66.00;67.00;68.00;69.00;70.00;71.00;72.00;73.00;74.00;75.00;76.00;77.00;78.00;79.00;80.00;81.00;82.00;83.00;84.00;85.00;
		REF_OVERSCAN_FACTOR=1.00
		SCAN_CURVETYPE=CROSSPLANE_PROFILE
		SCAN_DEPTH=55.00
		SCAN_OFFAXIS_INPLANE=0.00
		SCAN_OFFAXIS_CROSSPLANE=0.00
		SCAN_ANGLE=0.00
		SCAN_DIAGONAL=NOT_DIAGONAL
		SCAN_DIRECTION=POSITIVE
		MEAS_MEDIUM=WATER
		MEAS_PRESET=MEAS_CONTINUOUS_REFERENCE_SCAN
		MEAS_TIME=0.100
		MEAS_UNIT=A.U.
		INCLINATION_ANGLE=0.00
		PRESSURE=1013.25
		TEMPERATURE=20.00
		NORM_TEMPERATURE=20.00
		CORRECTION_FACTOR=1.0000
		EXPECTED_MAX_DOSE_RATE=3.00
		EPOM_DEPTH_SHIFT=0.2
		EPOM_MODE=SHIFT_PROTOCOL
		CORRECTIONS=CAX_CORR;INTERPOLATED_CORR;SYMMETRY_CORR;ADD_CURVES_CORR;
		BEGIN_DATA
			-96.50		2.6540E+00
			-96.00		2.6541E+00
			-95.50		2.6824E+00
			-95.00		2.7139E+00
			-94.50		2.7501E+00
			-94.00		2.7830E+00
			-93.50		2.8098E+00
			-93.00		2.8453E+00
			-92.50		2.8875E+00
			-92.00		2.9218E+00
			-91.50		2.9489E+00
			-91.00		2.9818E+00
			-90.50		3.0171E+00
			-90.00		5.6221E+00
			-89.50		5.6231E+00
			-89.00		5.6768E+00
			-88.50		5.7580E+00
			-88.00		5.8452E+00
			-87.50		5.9271E+00
			-87.00		6.0024E+00
			-86.50		6.1012E+00
			-86.00		6.2129E+00
			-85.50		6.3117E+00
			-85.00		6.3938E+00
			-84.50		6.4658E+00
			-84.00		6.5466E+00
			-83.50		6.6314E+00
			-83.00		6.7123E+00
			-82.50		6.8162E+00
			-82.00		6.9386E+00
			-81.50		7.0463E+00
			-81.00		7.1467E+00
			-80.50		7.2636E+00
			-80.00		11.110E+00
			-79.50		11.244E+00
			-79.00		11.409E+00
			-78.50		11.578E+00
			-78.00		11.734E+00
			-77.50		11.950E+00
			-77.00		12.170E+00
			-76.50		12.380E+00
			-76.00		12.613E+00
			-75.50		12.836E+00
			-75.00		13.014E+00
			-74.50		13.231E+00
			-74.00		13.439E+00
			-73.50		13.682E+00
			-73.00		13.947E+00
			-72.50		14.183E+00
			-72.00		14.511E+00
			-71.50		14.802E+00
			-71.00		15.041E+00
			-70.50		15.288E+00
			-70.00		15.558E+00
			-69.50		15.870E+00
			-69.00		16.216E+00
			-68.50		16.578E+00
			-68.00		16.932E+00
			-67.50		17.278E+00
			-67.00		17.676E+00
			-66.50		18.049E+00
			-66.00		18.473E+00
			-65.50		18.893E+00
			-65.00		19.288E+00
			-64.50		19.717E+00
			-64.00		20.232E+00
			-63.50		20.776E+00
			-63.00		21.261E+00
			-62.50		21.863E+00
			-62.00		22.461E+00
			-61.50		23.109E+00
			-61.00		23.784E+00
			-60.50		24.547E+00
			-60.00		25.309E+00
			-59.50		26.219E+00
			-59.00		27.162E+00
			-58.50		28.304E+00
			-58.00		29.482E+00
			-57.50		30.947E+00
			-57.00		32.527E+00
			-56.50		34.552E+00
			-56.00		36.856E+00
			-55.50		40.064E+00
			-55.00		43.885E+00
			-54.50		49.125E+00
			-54.00		55.755E+00
			-53.50		64.236E+00
			-53.00		74.790E+00
			-52.50		87.458E+00
			-52.00		101.93E+00
			-51.50		117.89E+00
			-51.00		135.27E+00
			-50.50		153.61E+00
			-50.00		172.63E+00
			-49.50		191.92E+00
			-49.00		211.15E+00
			-48.50		229.81E+00
			-48.00		247.95E+00
			-47.50		264.52E+00
			-47.00		280.12E+00
			-46.50		292.86E+00
			-46.00		304.87E+00
			-45.50		313.74E+00
			-45.00		322.00E+00
			-44.50		327.89E+00
			-44.00		333.43E+00
			-43.50		337.71E+00
			-43.00		341.58E+00
			-42.50		344.53E+00
			-42.00		347.18E+00
			-41.50		349.44E+00
			-41.00		351.66E+00
			-40.50		353.55E+00
			-40.00		355.16E+00
			-39.50		356.59E+00
			-39.00		357.98E+00
			-38.50		359.47E+00
			-38.00		360.95E+00
			-37.50		362.27E+00
			-37.00		363.56E+00
			-36.50		364.75E+00
			-36.00		365.90E+00
			-35.50		366.93E+00
			-35.00		367.91E+00
			-34.50		369.00E+00
			-34.00		370.05E+00
			-33.50		371.06E+00
			-33.00		372.07E+00
			-32.50		373.16E+00
			-32.00		374.15E+00
			-31.50		375.03E+00
			-31.00		375.97E+00
			-30.50		376.87E+00
			-30.00		377.74E+00
			-29.50		378.50E+00
			-29.00		379.32E+00
			-28.50		380.21E+00
			-28.00		381.06E+00
			-27.50		381.86E+00
			-27.00		382.76E+00
			-26.50		383.46E+00
			-26.00		383.99E+00
			-25.50		384.67E+00
			-25.00		385.42E+00
			-24.50		386.04E+00
			-24.00		386.58E+00
			-23.50		387.15E+00
			-23.00		387.97E+00
			-22.50		388.87E+00
			-22.00		389.56E+00
			-21.50		390.01E+00
			-21.00		390.45E+00
			-20.50		391.14E+00
			-20.00		391.86E+00
			-19.50		392.39E+00
			-19.00		392.88E+00
			-18.50		393.45E+00
			-18.00		393.94E+00
			-17.50		394.31E+00
			-17.00		394.65E+00
			-16.50		395.16E+00
			-16.00		395.73E+00
			-15.50		396.10E+00
			-15.00		396.50E+00
			-14.50		396.98E+00
			-14.00		397.42E+00
			-13.50		397.79E+00
			-13.00		398.07E+00
			-12.50		398.37E+00
			-12.00		398.69E+00
			-11.50		399.08E+00
			-11.00		399.39E+00
			-10.50		399.61E+00
			-10.00		399.72E+00
			-9.50		400.02E+00
			-9.00		400.43E+00
			-8.50		400.90E+00
			-8.00		401.27E+00
			-7.50		401.60E+00
			-7.00		401.93E+00
			-6.50		402.04E+00
			-6.00		402.16E+00
			-5.50		402.44E+00
			-5.00		402.57E+00
			-4.50		402.68E+00
			-4.00		402.79E+00
			-3.50		402.98E+00
			-3.00		403.22E+00
			-2.50		403.37E+00
			-2.00		403.45E+00
			-1.50		403.53E+00
			-1.00		403.58E+00
			-0.50		403.67E+00
			0.00		403.66E+00
			0.50		403.67E+00
			1.00		403.58E+00
			1.50		403.53E+00
			2.00		403.45E+00
			2.50		403.37E+00
			3.00		403.22E+00
			3.50		402.98E+00
			4.00		402.79E+00
			4.50		402.68E+00
			5.00		402.57E+00
			5.50		402.44E+00
			6.00		402.16E+00
			6.50		402.04E+00
			7.00		401.93E+00
			7.50		401.60E+00
			8.00		401.27E+00
			8.50		400.90E+00
			9.00		400.43E+00
			9.50		400.02E+00
			10.00		399.72E+00
			10.50		399.61E+00
			11.00		399.39E+00
			11.50		399.08E+00
			12.00		398.69E+00
			12.50		398.37E+00
			13.00		398.07E+00
			13.50		397.79E+00
			14.00		397.42E+00
			14.50		396.98E+00
			15.00		396.50E+00
			15.50		396.10E+00
			16.00		395.73E+00
			16.50		395.16E+00
			17.00		394.65E+00
			17.50		394.31E+00
			18.00		393.94E+00
			18.50		393.45E+00
			19.00		392.88E+00
			19.50		392.39E+00
			20.00		391.86E+00
			20.50		391.14E+00
			21.00		390.45E+00
			21.50		390.01E+00
			22.00		389.56E+00
			22.50		388.87E+00
			23.00		387.97E+00
			23.50		387.15E+00
			24.00		386.58E+00
			24.50		386.04E+00
			25.00		385.42E+00
			25.50		384.67E+00
			26.00		383.99E+00
			26.50		383.46E+00
			27.00		382.76E+00
			27.50		381.86E+00
			28.00		381.06E+00
			28.50		380.21E+00
			29.00		379.32E+00
			29.50		378.50E+00
			30.00		377.74E+00
			30.50		376.87E+00
			31.00		375.97E+00
			31.50		375.03E+00
			32.00		374.15E+00
			32.50		373.16E+00
			33.00		372.07E+00
			33.50		371.06E+00
			34.00		370.05E+00
			34.50		369.00E+00
			35.00		367.91E+00
			35.50		366.93E+00
			36.00		365.90E+00
			36.50		364.75E+00
			37.00		363.56E+00
			37.50		362.27E+00
			38.00		360.95E+00
			38.50		359.47E+00
			39.00		357.98E+00
			39.50		356.59E+00
			40.00		355.16E+00
			40.50		353.55E+00
			41.00		351.66E+00
			41.50		349.44E+00
			42.00		347.18E+00
			42.50		344.53E+00
			43.00		341.58E+00
			43.50		337.71E+00
			44.00		333.43E+00
			44.50		327.89E+00
			45.00		322.00E+00
			45.50		313.74E+00
			46.00		304.87E+00
			46.50		292.86E+00
			47.00		280.12E+00
			47.50		264.52E+00
			48.00		247.95E+00
			48.50		229.81E+00
			49.00		211.15E+00
			49.50		191.92E+00
			50.00		172.63E+00
			50.50		153.61E+00
			51.00		135.27E+00
			51.50		117.89E+00
			52.00		101.93E+00
			52.50		87.458E+00
			53.00		74.790E+00
			53.50		64.236E+00
			54.00		55.755E+00
			54.50		49.125E+00
			55.00		43.885E+00
			55.50		40.064E+00
			56.00		36.856E+00
			56.50		34.552E+00
			57.00		32.527E+00
			57.50		30.947E+00
			58.00		29.482E+00
			58.50		28.304E+00
			59.00		27.162E+00
			59.50		26.219E+00
			60.00		25.309E+00
			60.50		24.547E+00
			61.00		23.784E+00
			61.50		23.109E+00
			62.00		22.461E+00
			62.50		21.863E+00
			63.00		21.261E+00
			63.50		20.776E+00
			64.00		20.232E+00
			64.50		19.717E+00
			65.00		19.288E+00
			65.50		18.893E+00
			66.00		18.473E+00
			66.50		18.049E+00
			67.00		17.676E+00
			67.50		17.278E+00
			68.00		16.932E+00
			68.50		16.578E+00
			69.00		16.216E+00
			69.50		15.870E+00
			70.00		15.558E+00
			70.50		15.288E+00
			71.00		15.041E+00
			71.50		14.802E+00
			72.00		14.511E+00
			72.50		14.183E+00
			73.00		13.947E+00
			73.50		13.682E+00
			74.00		13.439E+00
			74.50		13.231E+00
			75.00		13.014E+00
			75.50		12.836E+00
			76.00		12.613E+00
			76.50		12.380E+00
			77.00		12.170E+00
			77.50		11.950E+00
			78.00		11.734E+00
			78.50		11.578E+00
			79.00		11.409E+00
			79.50		11.244E+00
			80.00		11.110E+00
			80.50		7.2636E+00
			81.00		7.1467E+00
			81.50		7.0463E+00
			82.00		6.9386E+00
			82.50		6.8162E+00
			83.00		6.7123E+00
			83.50		6.6314E+00
			84.00		6.5466E+00
			84.50		6.4658E+00
			85.00		6.3938E+00
			85.50		6.3117E+00
			86.00		6.2129E+00
			86.50		6.1012E+00
			87.00		6.0024E+00
			87.50		5.9271E+00
			88.00		5.8452E+00
			88.50		5.7580E+00
			89.00		5.6768E+00
			89.50		5.6231E+00
			90.00		5.6221E+00
			90.50		3.0171E+00
			91.00		2.9818E+00
			91.50		2.9489E+00
			92.00		2.9218E+00
			92.50		2.8875E+00
			93.00		2.8453E+00
			93.50		2.8098E+00
			94.00		2.7830E+00
			94.50		2.7501E+00
			95.00		2.7139E+00
			95.50		2.6824E+00
			96.00		2.6541E+00
			96.50		2.6540E+00
		END_DATA
	END_SCAN  2
	BEGIN_SCAN  3
		TASK_NAME=tba PDD Profiles
		PROGRAM=WaterTankScans
		COMMENT=Average
		MEAS_DATE=15-Mar-2022 16:16:39
		LINAC=MRIdian
		MODALITY=X
		ISOCENTER=900.00
		INPLANE_AXIS=Y
		CROSSPLANE_AXIS=X
		DEPTH_AXIS=Depth
		INPLANE_AXIS_DIR=TARGET_GUN
		CROSSPLANE_AXIS_DIR=LEFT_RIGHT
		DEPTH_AXIS_DIR=UP_DOWN
		ENERGY=6.00
		NOMINAL_DMAX=15.00
		SSD=850.00
		SCD=450.00
		WEDGE_ANGLE=0.00
		FIELD_INPLANE=100.00
		FIELD_CROSSPLANE=100.00
		FIELD_TYPE=RECTANGULAR
		GANTRY_UPRIGHT_POSITION=0
		GANTRY_ROTATION=CW
		COLL_ANGLE=0.00
		COLL_OFFSET_INPLANE=0.00
		COLL_OFFSET_CROSSPLANE=0.00
		SCAN_DEVICE=BeamScan
		SCAN_DEVICE_SETUP=BARA_LEFT_RIGHT
		ELECTROMETER=BeamScan
		RANGE_FIELD=LOW
		RANGE_REFERENCE=MEDIUM
		DETECTOR=THIMBLE_CHAMBER
		DETECTOR_RADIUS=2.40
		DETECTOR_NAME=A28MR
		DETECTOR_SN=-
		DETECTOR_CALIBRATION=588000000.00
		DETECTOR_IS_CALIBRATED=0
		DETECTOR_REFERENCE=THIMBLE_CHAMBER
		DETECTOR_REFERENCE_RADIUS=2.75
		DETECTOR_REFERENCE_NAME=A28MR
		DETECTOR_REFERENCE_SN=—
		DETECTOR_REFERENCE_IS_CALIBRATED=0
		DETECTOR_REFERENCE_CALIBRATION=303000000.00
		DETECTOR_HV=300.0
		DETECTOR_REFERENCE_HV=300.0
		DETECTOR_ORIENTATION=HORIZONTAL
		FILTER=FFF
		SCAN_SPEED_PROFILE=10.00
		SCAN_PROF_SPEED_DEP=DEPTH
		SCAN_SPEED_PDD=0.00
		SCAN_PDD_SPEED_DEP=ENERGY
		DETECTOR_TYPE=A28MR
		REF_FIELD_DEPTH=50.00
		REF_FIELD_DEFINED=ISOCENTER
		REF_FIELD_INPLANE=100.00
		REF_FIELD_CROSSPLANE=100.00
		REF_SCAN_POSITIONS=-85.00;-84.00;-83.00;-82.00;-81.00;-80.00;-79.00;-78.00;-77.00;-76.00;-75.00;-74.00;-73.00;-72.00;-71.00;-70.00;-69.00;-68.00;-67.00;-66.00;-65.00;-64.00;-63.00;-62.00;-61.00;-60.00;-59.00;-58.00;-57.00;-56.00;-55.00;-54.00;-53.00;-52.00;-51.00;-50.00;-49.00;-48.00;-47.00;-46.00;-45.00;-44.00;-43.00;-42.00;-41.00;-40.00;-39.00;-38.00;-37.00;-36.00;-35.00;-34.00;-33.00;-32.00;-31.00;-30.00;-29.00;-28.00;-27.00;-26.00;-25.00;-24.00;-23.00;-22.00;-21.00;-20.00;-19.00;-18.00;-17.00;-16.00;-15.00;-14.00;-13.00;-12.00;-11.00;-10.00;-9.00;-8.00;-7.00;-6.00;-5.00;-4.00;-3.00;-2.00;-1.00;0.00;1.00;2.00;3.00;4.00;5.00;6.00;7.00;8.00;9.00;10.00;11.00;12.00;13.00;14.00;15.00;16.00;17.00;18.00;19.00;20.00;21.00;22.00;23.00;24.00;25.00;26.00;27.00;28.00;29.00;30.00;31.00;32.00;33.00;34.00;35.00;36.00;37.00;38.00;39.00;40.00;41.00;42.00;43.00;44.00;45.00;46.00;47.00;48.00;49.00;50.00;51.00;52.00;53.00;54.00;55.00;56.00;57.00;58.00;59.00;60.00;61.00;62.00;63.00;64.00;65.00;66.00;67.00;68.00;69.00;70.00;71.00;72.00;73.00;74.00;75.00;76.00;77.00;78.00;79.00;80.00;81.00;82.00;83.00;84.00;85.00;
		REF_OVERSCAN_FACTOR=1.00
		SCAN_CURVETYPE=CROSSPLANE_PROFILE
		SCAN_DEPTH=100.00
		SCAN_OFFAXIS_INPLANE=0.00
		SCAN_OFFAXIS_CROSSPLANE=0.00
		SCAN_ANGLE=0.00
		SCAN_DIAGONAL=NOT_DIAGONAL
		SCAN_DIRECTION=POSITIVE
		MEAS_MEDIUM=WATER
		MEAS_PRESET=MEAS_CONTINUOUS_REFERENCE_SCAN
		MEAS_TIME=0.100
		MEAS_UNIT=A.U.
		INCLINATION_ANGLE=0.00
		PRESSURE=1013.25
		TEMPERATURE=20.00
		NORM_TEMPERATURE=20.00
		CORRECTION_FACTOR=1.0000
		EXPECTED_MAX_DOSE_RATE=3.00
		EPOM_DEPTH_SHIFT=0.2
		EPOM_MODE=SHIFT_PROTOCOL
		CORRECTIONS=CAX_CORR;INTERPOLATED_CORR;SYMMETRY_CORR;ADD_CURVES_CORR;
		BEGIN_DATA
			-96.00		3.4126E+00
			-95.50		3.4312E+00
			-95.00		3.4642E+00
			-94.50		3.5048E+00
			-94.00		3.5508E+00
			-93.50		3.6007E+00
			-93.00		3.6447E+00
			-92.50		3.6946E+00
			-92.00		3.7476E+00
			-91.50		3.8032E+00
			-91.00		3.8635E+00
			-90.50		3.9114E+00
			-90.00		7.2453E+00
			-89.50		7.2868E+00
			-89.00		7.3682E+00
			-88.50		7.4499E+00
			-88.00		7.5478E+00
			-87.50		7.6467E+00
			-87.00		7.7562E+00
			-86.50		7.8711E+00
			-86.00		7.9830E+00
			-85.50		8.0929E+00
			-85.00		8.2124E+00
			-84.50		8.3293E+00
			-84.00		8.4512E+00
			-83.50		8.5811E+00
			-83.00		8.7080E+00
			-82.50		8.8335E+00
			-82.00		8.9637E+00
			-81.50		9.1112E+00
			-81.00		9.2701E+00
			-80.50		9.4086E+00
			-80.00		14.319E+00
			-79.50		14.513E+00
			-79.00		14.711E+00
			-78.50		14.871E+00
			-78.00		15.074E+00
			-77.50		15.319E+00
			-77.00		15.583E+00
			-76.50		15.861E+00
			-76.00		16.149E+00
			-75.50		16.410E+00
			-75.00		16.674E+00
			-74.50		16.959E+00
			-74.00		17.257E+00
			-73.50		17.549E+00
			-73.00		17.841E+00
			-72.50		18.149E+00
			-72.00		18.439E+00
			-71.50		18.747E+00
			-71.00		19.116E+00
			-70.50		19.498E+00
			-70.00		19.838E+00
			-69.50		20.160E+00
			-69.00		20.565E+00
			-68.50		20.981E+00
			-68.00		21.391E+00
			-67.50		21.802E+00
			-67.00		22.222E+00
			-66.50		22.672E+00
			-66.00		23.164E+00
			-65.50		23.666E+00
			-65.00		24.199E+00
			-64.50		24.738E+00
			-64.00		25.297E+00
			-63.50		25.891E+00
			-63.00		26.545E+00
			-62.50		27.264E+00
			-62.00		28.020E+00
			-61.50		28.811E+00
			-61.00		29.714E+00
			-60.50		30.673E+00
			-60.00		31.873E+00
			-59.50		33.207E+00
			-59.00		34.804E+00
			-58.50		36.702E+00
			-58.00		39.264E+00
			-57.50		42.216E+00
			-57.00		46.163E+00
			-56.50		50.868E+00
			-56.00		57.285E+00
			-55.50		64.666E+00
			-55.00		73.792E+00
			-54.50		83.849E+00
			-54.00		95.246E+00
			-53.50		107.30E+00
			-53.00		120.24E+00
			-52.50		133.56E+00
			-52.00		147.12E+00
			-51.50		160.58E+00
			-51.00		173.69E+00
			-50.50		186.42E+00
			-50.00		198.31E+00
			-49.50		209.34E+00
			-49.00		219.09E+00
			-48.50		227.55E+00
			-48.00		234.53E+00
			-47.50		240.38E+00
			-47.00		245.10E+00
			-46.50		249.17E+00
			-46.00		252.60E+00
			-45.50		255.43E+00
			-45.00		257.91E+00
			-44.50		260.14E+00
			-44.00		262.07E+00
			-43.50		263.77E+00
			-43.00		265.32E+00
			-42.50		266.76E+00
			-42.00		267.98E+00
			-41.50		269.21E+00
			-41.00		270.59E+00
			-40.50		271.72E+00
			-40.00		272.58E+00
			-39.50		273.40E+00
			-39.00		274.42E+00
			-38.50		275.47E+00
			-38.00		276.38E+00
			-37.50		277.32E+00
			-37.00		278.18E+00
			-36.50		278.98E+00
			-36.00		279.82E+00
			-35.50		280.66E+00
			-35.00		281.39E+00
			-34.50		282.13E+00
			-34.00		282.95E+00
			-33.50		283.73E+00
			-33.00		284.42E+00
			-32.50		285.09E+00
			-32.00		285.87E+00
			-31.50		286.67E+00
			-31.00		287.45E+00
			-30.50		288.13E+00
			-30.00		288.65E+00
			-29.50		289.19E+00
			-29.00		289.79E+00
			-28.50		290.47E+00
			-28.00		291.14E+00
			-27.50		291.73E+00
			-27.00		292.12E+00
			-26.50		292.55E+00
			-26.00		293.06E+00
			-25.50		293.72E+00
			-25.00		294.33E+00
			-24.50		294.88E+00
			-24.00		295.49E+00
			-23.50		296.09E+00
			-23.00		296.58E+00
			-22.50		297.01E+00
			-22.00		297.41E+00
