BEGIN_SCAN_DATA
	FORMAT=CC-Export V1.9                  
	FILE_CREATION_DATE=15-Mar-2022 16:30:50
	LAST_MODIFIED=15-Mar-2022 16:30:50
	BEGIN_SCAN  1
		TASK_NAME=tba PDD Profiles
		PROGRAM=WaterTankScans
		COMMENT=Average
		MEAS_DATE=15-Mar-2022 16:25:44
		LINAC=MRIdian
		MODALITY=X
		ISOCENTER=900.00
		INPLANE_AXIS=Y
		CROSSPLANE_AXIS=X
		DEPTH_AXIS=Depth
		INPLANE_AXIS_DIR=TARGET_GUN
		CROSSPLANE_AXIS_DIR=LEFT_RIGHT
		DEPTH_AXIS_DIR=UP_DOWN
		ENERGY=6.00
		NOMINAL_DMAX=15.00
		SSD=850.00
		SCD=450.00
		WEDGE_ANGLE=0.00
		FIELD_INPLANE=199.00
		FIELD_CROSSPLANE=199.00
		FIELD_TYPE=RECTANGULAR
		GANTRY_UPRIGHT_POSITION=0
		GANTRY_ROTATION=CW
		COLL_ANGLE=0.00
		COLL_OFFSET_INPLANE=0.00
		COLL_OFFSET_CROSSPLANE=0.00
		SCAN_DEVICE=BeamScan
		SCAN_DEVICE_SETUP=BARA_LEFT_RIGHT
		ELECTROMETER=BeamScan
		RANGE_FIELD=LOW
		RANGE_REFERENCE=MEDIUM
		DETECTOR=THIMBLE_CHAMBER
		DETECTOR_RADIUS=2.40
		DETECTOR_NAME=A28MR
		DETECTOR_SN=-
		DETECTOR_CALIBRATION=588000000.00
		DETECTOR_IS_CALIBRATED=0
		DETECTOR_REFERENCE=THIMBLE_CHAMBER
		DETECTOR_REFERENCE_RADIUS=2.75
		DETECTOR_REFERENCE_NAME=A28MR
		DETECTOR_REFERENCE_SN=—
		DETECTOR_REFERENCE_IS_CALIBRATED=0
		DETECTOR_REFERENCE_CALIBRATION=303000000.00
		DETECTOR_HV=300.0
		DETECTOR_REFERENCE_HV=300.0
		DETECTOR_ORIENTATION=HORIZONTAL
		FILTER=FFF
		SCAN_SPEED_PROFILE=10.00
		SCAN_PROF_SPEED_DEP=DEPTH
		SCAN_SPEED_PDD=0.00
		SCAN_PDD_SPEED_DEP=ENERGY
		DETECTOR_TYPE=A28MR
		REF_FIELD_DEPTH=50.00
		REF_FIELD_DEFINED=ISOCENTER
		REF_FIELD_INPLANE=100.00
		REF_FIELD_CROSSPLANE=100.00
		REF_SCAN_POSITIONS=-85.00;-84.00;-83.00;-82.00;-81.00;-80.00;-79.00;-78.00;-77.00;-76.00;-75.00;-74.00;-73.00;-72.00;-71.00;-70.00;-69.00;-68.00;-67.00;-66.00;-65.00;-64.00;-63.00;-62.00;-61.00;-60.00;-59.00;-58.00;-57.00;-56.00;-55.00;-54.00;-53.00;-52.00;-51.00;-50.00;-49.00;-48.00;-47.00;-46.00;-45.00;-44.00;-43.00;-42.00;-41.00;-40.00;-39.00;-38.00;-37.00;-36.00;-35.00;-34.00;-33.00;-32.00;-31.00;-30.00;-29.00;-28.00;-27.00;-26.00;-25.00;-24.00;-23.00;-22.00;-21.00;-20.00;-19.00;-18.00;-17.00;-16.00;-15.00;-14.00;-13.00;-12.00;-11.00;-10.00;-9.00;-8.00;-7.00;-6.00;-5.00;-4.00;-3.00;-2.00;-1.00;0.00;1.00;2.00;3.00;4.00;5.00;6.00;7.00;8.00;9.00;10.00;11.00;12.00;13.00;14.00;15.00;16.00;17.00;18.00;19.00;20.00;21.00;22.00;23.00;24.00;25.00;26.00;27.00;28.00;29.00;30.00;31.00;32.00;33.00;34.00;35.00;36.00;37.00;38.00;39.00;40.00;41.00;42.00;43.00;44.00;45.00;46.00;47.00;48.00;49.00;50.00;51.00;52.00;53.00;54.00;55.00;56.00;57.00;58.00;59.00;60.00;61.00;62.00;63.00;64.00;65.00;66.00;67.00;68.00;69.00;70.00;71.00;72.00;73.00;74.00;75.00;76.00;77.00;78.00;79.00;80.00;81.00;82.00;83.00;84.00;85.00;
		REF_OVERSCAN_FACTOR=1.00
		SCAN_CURVETYPE=CROSSPLANE_PROFILE
		SCAN_DEPTH=20.00
		SCAN_OFFAXIS_INPLANE=0.00
		SCAN_OFFAXIS_CROSSPLANE=0.00
		SCAN_ANGLE=0.00
		SCAN_DIAGONAL=NOT_DIAGONAL
		SCAN_DIRECTION=POSITIVE
		MEAS_MEDIUM=WATER
		MEAS_PRESET=MEAS_CONTINUOUS_REFERENCE_SCAN
		MEAS_TIME=0.100
		MEAS_UNIT=A.U.
		INCLINATION_ANGLE=0.00
		PRESSURE=1013.25
		TEMPERATURE=20.00
		NORM_TEMPERATURE=20.00
		CORRECTION_FACTOR=1.0000
		EXPECTED_MAX_DOSE_RATE=3.00
		EPOM_DEPTH_SHIFT=0.2
		EPOM_MODE=SHIFT_PROTOCOL
		CORRECTIONS=CAX_CORR;SMOOTHED_CORR;INTERPOLATED_CORR;SYMMETRY_CORR;ADD_CURVES_CORR;
		BEGIN_DATA
			-150.00		4.0579E+00
			-149.50		4.1243E+00
			-149.00		4.1581E+00
			-148.50		4.1939E+00
			-148.00		4.2267E+00
			-147.50		4.2387E+00
			-147.00		4.2533E+00
			-146.50		4.3151E+00
			-146.00		4.3787E+00
			-145.50		4.4082E+00
			-145.00		4.4360E+00
			-144.50		4.4711E+00
			-144.00		4.5031E+00
			-143.50		4.5294E+00
			-143.00		4.5648E+00
			-142.50		4.6402E+00
			-142.00		4.7116E+00
			-141.50		4.7245E+00
			-141.00		4.7336E+00
			-140.50		4.7691E+00
			-140.00		10.045E+00
			-139.50		10.148E+00
			-139.00		10.277E+00
			-138.50		10.332E+00
			-138.00		10.388E+00
			-137.50		10.495E+00
			-137.00		10.602E+00
			-136.50		10.726E+00
			-136.00		10.842E+00
			-135.50		10.930E+00
			-135.00		11.032E+00
			-134.50		11.156E+00
			-134.00		11.274E+00
			-133.50		11.365E+00
			-133.00		11.451E+00
			-132.50		11.556E+00
			-132.00		11.663E+00
			-131.50		11.774E+00
			-131.00		11.896E+00
			-130.50		12.039E+00
			-130.00		12.178E+00
			-129.50		12.302E+00
			-129.00		12.427E+00
			-128.50		12.562E+00
			-128.00		12.688E+00
			-127.50		12.799E+00
			-127.00		12.927E+00
			-126.50		13.092E+00
			-126.00		13.257E+00
			-125.50		13.407E+00
			-125.00		13.550E+00
			-124.50		13.672E+00
			-124.00		13.789E+00
			-123.50		13.950E+00
			-123.00		14.123E+00
			-122.50		14.295E+00
			-122.00		14.470E+00
			-121.50		14.639E+00
			-121.00		14.811E+00
			-120.50		14.988E+00
			-120.00		15.173E+00
			-119.50		15.370E+00
			-119.00		15.572E+00
			-118.50		15.809E+00
			-118.00		16.049E+00
			-117.50		16.244E+00
			-117.00		16.426E+00
			-116.50		16.627E+00
			-116.00		16.847E+00
			-115.50		17.133E+00
			-115.00		17.413E+00
			-114.50		17.618E+00
			-114.00		17.833E+00
			-113.50		18.127E+00
			-113.00		18.445E+00
			-112.50		18.817E+00
			-112.00		19.179E+00
			-111.50		19.491E+00
			-111.00		19.805E+00
			-110.50		20.150E+00
			-110.00		20.518E+00
			-109.50		20.967E+00
			-109.00		21.420E+00
			-108.50		21.851E+00
			-108.00		22.286E+00
			-107.50		22.818E+00
			-107.00		23.382E+00
			-106.50		24.069E+00
			-106.00		24.770E+00
			-105.50		25.458E+00
			-105.00		26.174E+00
			-104.50		27.202E+00
			-104.00		28.306E+00
			-103.50		29.759E+00
			-103.00		31.329E+00
			-102.50		33.413E+00
			-102.00		35.725E+00
			-101.50		39.188E+00
			-101.00		43.115E+00
			-100.50		49.288E+00
			-100.00		56.303E+00
			-99.50		66.953E+00
			-99.00		78.395E+00
			-98.50		92.897E+00
			-98.00		108.24E+00
			-97.50		125.80E+00
			-97.00		143.82E+00
			-96.50		162.87E+00
			-96.00		182.08E+00
			-95.50		201.13E+00
			-95.00		220.01E+00
			-94.50		237.45E+00
			-94.00		254.28E+00
			-93.50		268.39E+00
			-93.00		281.66E+00
			-92.50		291.47E+00
			-92.00		300.43E+00
			-91.50		306.65E+00
			-91.00		312.27E+00
			-90.50		316.21E+00
			-90.00		319.77E+00
			-89.50		322.47E+00
			-89.00		325.02E+00
			-88.50		327.07E+00
			-88.00		328.96E+00
			-87.50		330.70E+00
			-87.00		332.39E+00
			-86.50		333.93E+00
			-86.00		335.47E+00
			-85.50		336.65E+00
			-85.00		337.77E+00
			-84.50		338.88E+00
			-84.00		339.97E+00
			-83.50		341.09E+00
			-83.00		342.20E+00
			-82.50		343.20E+00
			-82.00		344.20E+00
			-81.50		345.27E+00
			-81.00		346.37E+00
			-80.50		347.48E+00
			-80.00		348.58E+00
			-79.50		349.57E+00
			-79.00		350.53E+00
			-78.50		351.45E+00
			-78.00		352.36E+00
			-77.50		353.34E+00
			-77.00		354.29E+00
			-76.50		355.27E+00
			-76.00		356.23E+00
			-75.50		357.19E+00
			-75.00		358.15E+00
			-74.50		359.13E+00
			-74.00		360.09E+00
			-73.50		361.07E+00
			-73.00		362.03E+00
			-72.50		362.98E+00
			-72.00		363.93E+00
			-71.50		364.88E+00
			-71.00		365.82E+00
			-70.50		366.77E+00
			-70.00		367.74E+00
			-69.50		368.67E+00
			-69.00		369.60E+00
			-68.50		370.46E+00
			-68.00		371.30E+00
			-67.50		372.20E+00
			-67.00		373.11E+00
			-66.50		374.10E+00
			-66.00		375.12E+00
			-65.50		376.07E+00
			-65.00		377.02E+00
			-64.50		377.87E+00
			-64.00		378.68E+00
			-63.50		379.46E+00
			-63.00		380.23E+00
			-62.50		381.06E+00
			-62.00		381.90E+00
			-61.50		382.80E+00
			-61.00		383.73E+00
			-60.50		384.65E+00
			-60.00		385.55E+00
			-59.50		386.38E+00
			-59.00		387.17E+00
			-58.50		387.95E+00
			-58.00		388.77E+00
			-57.50		389.70E+00
			-57.00		390.67E+00
			-56.50		391.62E+00
			-56.00		392.51E+00
			-55.50		393.31E+00
			-55.00		394.12E+00
			-54.50		395.04E+00
			-54.00		396.01E+00
			-53.50		396.99E+00
			-53.00		397.96E+00
			-52.50		398.84E+00
			-52.00		399.70E+00
			-51.50		400.57E+00
			-51.00		401.43E+00
			-50.50		402.30E+00
			-50.00		403.18E+00
			-49.50		404.07E+00
			-49.00		404.97E+00
			-48.50		405.89E+00
			-48.00		406.81E+00
			-47.50		407.76E+00
			-47.00		408.71E+00
			-46.50		409.65E+00
			-46.00		410.57E+00
			-45.50		411.43E+00
			-45.00		412.30E+00
			-44.50		413.18E+00
			-44.00		414.10E+00
			-43.50		415.01E+00
			-43.00		415.88E+00
			-42.50		416.68E+00
			-42.00		417.46E+00
			-41.50		418.22E+00
			-41.00		419.03E+00
			-40.50		419.86E+00
			-40.00		420.68E+00
			-39.50		421.49E+00
			-39.00		422.27E+00
			-38.50		423.04E+00
			-38.00		423.83E+00
			-37.50		424.67E+00
			-37.00		425.54E+00
			-36.50		426.37E+00
			-36.00		427.20E+00
			-35.50		427.95E+00
			-35.00		428.69E+00
			-34.50		429.47E+00
			-34.00		430.25E+00
			-33.50		430.99E+00
			-33.00		431.71E+00
			-32.50		432.34E+00
			-32.00		432.96E+00
			-31.50		433.66E+00
			-31.00		434.38E+00
			-30.50		435.14E+00
			-30.00		435.92E+00
			-29.50		436.68E+00
			-29.00		437.41E+00
			-28.50		438.11E+00
			-28.00		438.80E+00
			-27.50		439.44E+00
			-27.00		440.09E+00
			-26.50		440.78E+00
			-26.00		441.46E+00
			-25.50		442.17E+00
			-25.00		442.88E+00
			-24.50		443.52E+00
			-24.00		444.17E+00
			-23.50		444.75E+00
			-23.00		445.32E+00
			-22.50		445.92E+00
			-22.00		446.54E+00
			-21.50		447.21E+00
			-21.00		447.89E+00
			-20.50		448.49E+00
			-20.00		449.08E+00
			-19.50		449.57E+00
			-19.00		450.05E+00
			-18.50		450.53E+00
			-18.00		451.00E+00
			-17.50		451.40E+00
			-17.00		451.79E+00
			-16.50		452.15E+00
			-16.00		452.54E+00
			-15.50		453.01E+00
			-15.00		453.48E+00
			-14.50		453.94E+00
			-14.00		454.38E+00
			-13.50		454.74E+00
			-13.00		455.08E+00
			-12.50		455.41E+00
			-12.00		455.73E+00
			-11.50		456.05E+00
			-11.00		456.38E+00
			-10.50		456.67E+00
			-10.00		456.97E+00
			-9.50		457.26E+00
			-9.00		457.52E+00
			-8.50		457.81E+00
			-8.00		458.11E+00
			-7.50		458.35E+00
			-7.00		458.58E+00
			-6.50		458.76E+00
			-6.00		458.92E+00
			-5.50		459.09E+00
			-5.00		459.28E+00
			-4.50		459.51E+00
			-4.00		459.74E+00
			-3.50		459.92E+00
			-3.00		460.07E+00
			-2.50		460.14E+00
			-2.00		460.18E+00
			-1.50		460.17E+00
			-1.00		460.15E+00
			-0.50		460.13E+00
			0.00		460.10E+00
			0.50		460.13E+00
			1.00		460.15E+00
			1.50		460.17E+00
			2.00		460.18E+00
			2.50		460.14E+00
			3.00		460.07E+00
			3.50		459.92E+00
			4.00		459.74E+00
			4.50		459.51E+00
			5.00		459.28E+00
			5.50		459.09E+00
			6.00		458.92E+00
			6.50		458.76E+00
			7.00		458.58E+00
			7.50		458.35E+00
			8.00		458.11E+00
			8.50		457.81E+00
			9.00		457.52E+00
			9.50		457.26E+00
			10.00		456.97E+00
			10.50		456.67E+00
			11.00		456.38E+00
			11.50		456.05E+00
			12.00		455.73E+00
			12.50		455.41E+00
			13.00		455.08E+00
			13.50		454.74E+00
			14.00		454.38E+00
			14.50		453.94E+00
			15.00		453.48E+00
			15.50		453.01E+00
			16.00		452.54E+00
			16.50		452.15E+00
			17.00		451.79E+00
			17.50		451.40E+00
			18.00		451.00E+00
			18.50		450.53E+00
			19.00		450.05E+00
			19.50		449.57E+00
			20.00		449.08E+00
			20.50		448.49E+00
			21.00		447.89E+00
			21.50		447.21E+00
			22.00		446.54E+00
			22.50		445.92E+00
			23.00		445.32E+00
			23.50		444.75E+00
			24.00		444.17E+00
			24.50		443.52E+00
			25.00		442.88E+00
			25.50		442.17E+00
			26.00		441.46E+00
			26.50		440.78E+00
			27.00		440.09E+00
			27.50		439.44E+00
			28.00		438.80E+00
			28.50		438.11E+00
			29.00		437.41E+00
			29.50		436.68E+00
			30.00		435.92E+00
			30.50		435.14E+00
			31.00		434.38E+00
			31.50		433.66E+00
			32.00		432.96E+00
			32.50		432.34E+00
			33.00		431.71E+00
			33.50		430.99E+00
			34.00		430.25E+00
			34.50		429.47E+00
			35.00		428.69E+00
			35.50		427.95E+00
			36.00		427.20E+00
			36.50		426.37E+00
			37.00		425.54E+00
			37.50		424.67E+00
			38.00		423.83E+00
			38.50		423.04E+00
			39.00		422.27E+00
			39.50		421.49E+00
			40.00		420.68E+00
			40.50		419.86E+00
			41.00		419.03E+00
			41.50		418.22E+00
			42.00		417.46E+00
			42.50		416.68E+00
			43.00		415.88E+00
			43.50		415.01E+00
			44.00		414.10E+00
			44.50		413.18E+00
			45.00		412.30E+00
			45.50		411.43E+00
			46.00		410.57E+00
			46.50		409.65E+00
			47.00		408.71E+00
			47.50		407.76E+00
			48.00		406.81E+00
			48.50		405.89E+00
			49.00		404.97E+00
			49.50		404.07E+00
			50.00		403.18E+00
			50.50		402.30E+00
			51.00		401.43E+00
			51.50		400.57E+00
			52.00		399.70E+00
			52.50		398.84E+00
			53.00		397.96E+00
			53.50		396.99E+00
			54.00		396.01E+00
			54.50		395.04E+00
			55.00		394.12E+00
			55.50		393.31E+00
			56.00		392.51E+00
			56.50		391.62E+00
			57.00		390.67E+00
			57.50		389.70E+00
			58.00		388.77E+00
			58.50		387.95E+00
			59.00		387.17E+00
			59.50		386.38E+00
			60.00		385.55E+00
			60.50		384.65E+00
			61.00		383.73E+00
			61.50		382.80E+00
			62.00		381.90E+00
			62.50		381.06E+00
			63.00		380.23E+00
			63.50		379.46E+00
			64.00		378.68E+00
			64.50		377.87E+00
			65.00		377.02E+00
			65.50		376.07E+00
			66.00		375.12E+00
			66.50		374.10E+00
			67.00		373.11E+00
			67.50		372.20E+00
			68.00		371.30E+00
			68.50		370.46E+00
			69.00		369.60E+00
			69.50		368.67E+00
			70.00		367.74E+00
			70.50		366.77E+00
			71.00		365.82E+00
			71.50		364.88E+00
			72.00		363.93E+00
			72.50		362.98E+00
			73.00		362.03E+00
			73.50		361.07E+00
			74.00		360.09E+00
			74.50		359.13E+00
			75.00		358.15E+00
			75.50		357.19E+00
			76.00		356.23E+00
			76.50		355.27E+00
			77.00		354.29E+00
			77.50		353.34E+00
			78.00		352.36E+00
			78.50		351.45E+00
			79.00		350.53E+00
			79.50		349.57E+00
			80.00		348.58E+00
			80.50		347.48E+00
			81.00		346.37E+00
			81.50		345.27E+00
			82.00		344.20E+00
			82.50		343.20E+00
			83.00		342.20E+00
			83.50		341.09E+00
			84.00		339.97E+00
			84.50		338.88E+00
			85.00		337.77E+00
			85.50		336.65E+00
			86.00		335.47E+00
			86.50		333.93E+00
			87.00		332.39E+00
			87.50		330.70E+00
			88.00		328.96E+00
			88.50		327.07E+00
			89.00		325.02E+00
			89.50		322.47E+00
			90.00		319.77E+00
			90.50		316.21E+00
			91.00		312.27E+00
			91.50		306.65E+00
			92.00		300.43E+00
			92.50		291.47E+00
			93.00		281.66E+00
			93.50		268.39E+00
			94.00		254.28E+00
			94.50		237.45E+00
			95.00		220.01E+00
			95.50		201.13E+00
			96.00		182.08E+00
			96.50		162.87E+00
			97.00		143.82E+00
			97.50		125.80E+00
			98.00		108.24E+00
			98.50		92.897E+00
			99.00		78.395E+00
			99.50		66.953E+00
			100.00		56.303E+00
			100.50		49.288E+00
			101.00		43.115E+00
			101.50		39.188E+00
			102.00		35.725E+00
			102.50		33.413E+00
			103.00		31.329E+00
			103.50		29.759E+00
			104.00		28.306E+00
			104.50		27.202E+00
			105.00		26.174E+00
			105.50		25.458E+00
			106.00		24.770E+00
			106.50		24.069E+00
			107.00		23.382E+00
			107.50		22.818E+00
			108.00		22.286E+00
			108.50		21.851E+00
			109.00		21.420E+00
			109.50		20.967E+00
			110.00		20.518E+00
			110.50		20.150E+00
			111.00		19.805E+00
			111.50		19.491E+00
			112.00		19.179E+00
			112.50		18.817E+00
			113.00		18.445E+00
			113.50		18.127E+00
			114.00		17.833E+00
			114.50		17.618E+00
			115.00		17.413E+00
			115.50		17.133E+00
			116.00		16.847E+00
			116.50		16.627E+00
			117.00		16.426E+00
			117.50		16.244E+00
			118.00		16.049E+00
			118.50		15.809E+00
			119.00		15.572E+00
			119.50		15.370E+00
			120.00		15.173E+00
			120.50		14.988E+00
			121.00		14.811E+00
			121.50		14.639E+00
			122.00		14.470E+00
			122.50		14.295E+00
			123.00		14.123E+00
			123.50		13.950E+00
			124.00		13.789E+00
			124.50		13.672E+00
			125.00		13.550E+00
			125.50		13.407E+00
			126.00		13.257E+00
			126.50		13.092E+00
			127.00		12.927E+00
			127.50		12.799E+00
			128.00		12.688E+00
			128.50		12.562E+00
			129.00		12.427E+00
			129.50		12.302E+00
			130.00		12.178E+00
			130.50		12.039E+00
			131.00		11.896E+00
			131.50		11.774E+00
			132.00		11.663E+00
			132.50		11.556E+00
			133.00		11.451E+00
			133.50		11.365E+00
			134.00		11.274E+00
			134.50		11.156E+00
			135.00		11.032E+00
			135.50		10.930E+00
			136.00		10.842E+00
			136.50		10.726E+00
			137.00		10.602E+00
			137.50		10.495E+00
			138.00		10.388E+00
			138.50		10.332E+00
			139.00		10.277E+00
			139.50		10.148E+00
			140.00		10.045E+00
			140.50		4.7691E+00
			141.00		4.7336E+00
			141.50		4.7245E+00
			142.00		4.7116E+00
			142.50		4.6402E+00
			143.00		4.5648E+00
			143.50		4.5294E+00
			144.00		4.5031E+00
			144.50		4.4711E+00
			145.00		4.4360E+00
			145.50		4.4082E+00
			146.00		4.3787E+00
			146.50		4.3151E+00
			147.00		4.2533E+00
			147.50		4.2387E+00
			148.00		4.2267E+00
			148.50		4.1939E+00
			149.00		4.1581E+00
			149.50		4.1243E+00
			150.00		4.0579E+00
		END_DATA
	END_SCAN  1
	BEGIN_SCAN  2
		TASK_NAME=tba PDD Profiles
		PROGRAM=WaterTankScans
		COMMENT=Average
		MEAS_DATE=15-Mar-2022 16:26:13
		LINAC=MRIdian
		MODALITY=X
		ISOCENTER=900.00
		INPLANE_AXIS=Y
		CROSSPLANE_AXIS=X
		DEPTH_AXIS=Depth
		INPLANE_AXIS_DIR=TARGET_GUN
		CROSSPLANE_AXIS_DIR=LEFT_RIGHT
		DEPTH_AXIS_DIR=UP_DOWN
		ENERGY=6.00
		NOMINAL_DMAX=15.00
		SSD=850.00
		SCD=450.00
		WEDGE_ANGLE=0.00
		FIELD_INPLANE=199.00
		FIELD_CROSSPLANE=199.00
		FIELD_TYPE=RECTANGULAR
		GANTRY_UPRIGHT_POSITION=0
		GANTRY_ROTATION=CW
		COLL_ANGLE=0.00
		COLL_OFFSET_INPLANE=0.00
		COLL_OFFSET_CROSSPLANE=0.00
		SCAN_DEVICE=BeamScan
		SCAN_DEVICE_SETUP=BARA_LEFT_RIGHT
		ELECTROMETER=BeamScan
		RANGE_FIELD=LOW
		RANGE_REFERENCE=MEDIUM
		DETECTOR=THIMBLE_CHAMBER
		DETECTOR_RADIUS=2.40
		DETECTOR_NAME=A28MR
		DETECTOR_SN=-
		DETECTOR_CALIBRATION=588000000.00
		DETECTOR_IS_CALIBRATED=0
		DETECTOR_REFERENCE=THIMBLE_CHAMBER
		DETECTOR_REFERENCE_RADIUS=2.75
		DETECTOR_REFERENCE_NAME=A28MR
		DETECTOR_REFERENCE_SN=—
		DETECTOR_REFERENCE_IS_CALIBRATED=0
		DETECTOR_REFERENCE_CALIBRATION=303000000.00
		DETECTOR_HV=300.0
		DETECTOR_REFERENCE_HV=300.0
		DETECTOR_ORIENTATION=HORIZONTAL
		FILTER=FFF
		SCAN_SPEED_PROFILE=10.00
		SCAN_PROF_SPEED_DEP=DEPTH
		SCAN_SPEED_PDD=0.00
		SCAN_PDD_SPEED_DEP=ENERGY
		DETECTOR_TYPE=A28MR
		REF_FIELD_DEPTH=50.00
		REF_FIELD_DEFINED=ISOCENTER
		REF_FIELD_INPLANE=100.00
		REF_FIELD_CROSSPLANE=100.00
		REF_SCAN_POSITIONS=-85.00;-84.00;-83.00;-82.00;-81.00;-80.00;-79.00;-78.00;-77.00;-76.00;-75.00;-74.00;-73.00;-72.00;-71.00;-70.00;-69.00;-68.00;-67.00;-66.00;-65.00;-64.00;-63.00;-62.00;-61.00;-60.00;-59.00;-58.00;-57.00;-56.00;-55.00;-54.00;-53.00;-52.00;-51.00;-50.00;-49.00;-48.00;-47.00;-46.00;-45.00;-44.00;-43.00;-42.00;-41.00;-40.00;-39.00;-38.00;-37.00;-36.00;-35.00;-34.00;-33.00;-32.00;-31.00;-30.00;-29.00;-28.00;-27.00;-26.00;-25.00;-24.00;-23.00;-22.00;-21.00;-20.00;-19.00;-18.00;-17.00;-16.00;-15.00;-14.00;-13.00;-12.00;-11.00;-10.00;-9.00;-8.00;-7.00;-6.00;-5.00;-4.00;-3.00;-2.00;-1.00;0.00;1.00;2.00;3.00;4.00;5.00;6.00;7.00;8.00;9.00;10.00;11.00;12.00;13.00;14.00;15.00;16.00;17.00;18.00;19.00;20.00;21.00;22.00;23.00;24.00;25.00;26.00;27.00;28.00;29.00;30.00;31.00;32.00;33.00;34.00;35.00;36.00;37.00;38.00;39.00;40.00;41.00;42.00;43.00;44.00;45.00;46.00;47.00;48.00;49.00;50.00;51.00;52.00;53.00;54.00;55.00;56.00;57.00;58.00;59.00;60.00;61.00;62.00;63.00;64.00;65.00;66.00;67.00;68.00;69.00;70.00;71.00;72.00;73.00;74.00;75.00;76.00;77.00;78.00;79.00;80.00;81.00;82.00;83.00;84.00;85.00;
		REF_OVERSCAN_FACTOR=1.00
		SCAN_CURVETYPE=CROSSPLANE_PROFILE
		SCAN_DEPTH=55.00
		SCAN_OFFAXIS_INPLANE=0.00
		SCAN_OFFAXIS_CROSSPLANE=0.00
		SCAN_ANGLE=0.00
		SCAN_DIAGONAL=NOT_DIAGONAL
		SCAN_DIRECTION=POSITIVE
		MEAS_MEDIUM=WATER
		MEAS_PRESET=MEAS_CONTINUOUS_REFERENCE_SCAN
		MEAS_TIME=0.100
		MEAS_UNIT=A.U.
		INCLINATION_ANGLE=0.00
		PRESSURE=1013.25
		TEMPERATURE=20.00
		NORM_TEMPERATURE=20.00
		CORRECTION_FACTOR=1.0000
		EXPECTED_MAX_DOSE_RATE=3.00
		EPOM_DEPTH_SHIFT=0.2
		EPOM_MODE=SHIFT_PROTOCOL
		CORRECTIONS=CAX_CORR;SMOOTHED_CORR;INTERPOLATED_CORR;SYMMETRY_CORR;ADD_CURVES_CORR;
		BEGIN_DATA
			-184.50		2.5409E+00
			-184.00		2.5675E+00
			-183.50		2.5564E+00
			-183.00		2.5618E+00
			-182.50		2.5753E+00
			-182.00		2.6039E+00
			-181.50		2.6310E+00
			-181.00		2.6519E+00
			-180.50		2.6713E+00
			-180.00		2.6763E+00
			-179.50		2.6797E+00
			-179.00		2.6953E+00
			-178.50		2.7105E+00
			-178.00		2.7320E+00
			-177.50		2.7620E+00
			-177.00		2.7860E+00
			-176.50		2.8047E+00
			-176.00		2.8247E+00
			-175.50		2.8348E+00
			-175.00		2.8471E+00
			-174.50		2.8667E+00
			-174.00		2.8864E+00
			-173.50		2.9079E+00
			-173.00		2.9310E+00
			-172.50		2.9560E+00
			-172.00		2.9855E+00
			-171.50		3.0034E+00
			-171.00		3.0118E+00
			-170.50		3.0280E+00
			-170.00		3.0536E+00
			-169.50		3.0793E+00
			-169.00		3.1000E+00
			-168.50		3.1195E+00
			-168.00		3.1458E+00
			-167.50		3.1741E+00
			-167.00		3.1954E+00
			-166.50		3.2114E+00
			-166.00		3.2283E+00
			-165.50		3.2502E+00
			-165.00		3.2656E+00
			-164.50		3.2751E+00
			-164.00		3.2957E+00
			-163.50		3.3357E+00
			-163.00		3.3766E+00
			-162.50		3.3939E+00
			-162.00		3.4106E+00
			-161.50		3.4342E+00
			-161.00		3.4585E+00
			-160.50		3.4942E+00
			-160.00		3.5351E+00
			-159.50		3.5568E+00
			-159.00		3.5681E+00
			-158.50		3.5901E+00
			-158.00		3.6214E+00
			-157.50		3.6537E+00
			-157.00		3.6826E+00
			-156.50		3.7126E+00
			-156.00		3.7522E+00
			-155.50		3.7925E+00
			-155.00		3.8232E+00
			-154.50		3.8508E+00
			-154.00		3.8758E+00
			-153.50		3.9054E+00
			-153.00		3.9267E+00
			-152.50		3.9451E+00
			-152.00		3.9787E+00
			-151.50		4.0153E+00
			-151.00		4.0536E+00
			-150.50		4.1012E+00
			-150.00		12.012E+00
			-149.50		12.043E+00
			-149.00		12.134E+00
			-148.50		12.236E+00
			-148.00		12.348E+00
			-147.50		12.460E+00
			-147.00		12.571E+00
			-146.50		12.692E+00
			-146.00		12.817E+00
			-145.50		12.958E+00
			-145.00		13.111E+00
			-144.50		13.247E+00
			-144.00		13.359E+00
			-143.50		13.479E+00
			-143.00		13.619E+00
			-142.50		13.759E+00
			-142.00		13.906E+00
			-141.50		14.052E+00
			-141.00		14.161E+00
			-140.50		14.268E+00
			-140.00		14.407E+00
			-139.50		14.548E+00
			-139.00		14.696E+00
			-138.50		14.845E+00
			-138.00		14.988E+00
			-137.50		15.165E+00
			-137.00		15.349E+00
			-136.50		15.503E+00
			-136.00		15.662E+00
			-135.50		15.837E+00
			-135.00		16.003E+00
			-134.50		16.171E+00
			-134.00		16.359E+00
			-133.50		16.537E+00
			-133.00		16.699E+00
			-132.50		16.880E+00
			-132.00		17.064E+00
			-131.50		17.251E+00
			-131.00		17.474E+00
			-130.50		17.704E+00
			-130.00		17.916E+00
			-129.50		18.109E+00
			-129.00		18.302E+00
			-128.50		18.507E+00
			-128.00		18.725E+00
			-127.50		18.941E+00
			-127.00		19.157E+00
			-126.50		19.382E+00
			-126.00		19.629E+00
			-125.50		19.897E+00
			-125.00		20.170E+00
			-124.50		20.457E+00
			-124.00		20.744E+00
			-123.50		21.003E+00
			-123.00		21.274E+00
			-122.50		21.568E+00
			-122.00		21.855E+00
			-121.50		22.117E+00
			-121.00		22.399E+00
			-120.50		22.751E+00
			-120.00		23.105E+00
			-119.50		23.431E+00
			-119.00		23.775E+00
			-118.50		24.139E+00
			-118.00		24.492E+00
			-117.50		24.851E+00
			-117.00		25.239E+00
			-116.50		25.656E+00
			-116.00		26.129E+00
			-115.50		26.623E+00
			-115.00		27.108E+00
			-114.50		27.563E+00
			-114.00		28.025E+00
			-113.50		28.542E+00
			-113.00		29.116E+00
			-112.50		29.714E+00
			-112.00		30.321E+00
			-111.50		30.950E+00
			-111.00		31.597E+00
			-110.50		32.288E+00
			-110.00		33.016E+00
			-109.50		33.880E+00
			-109.00		34.822E+00
			-108.50		35.885E+00
			-108.00		37.035E+00
			-107.50		38.412E+00
			-107.00		39.952E+00
			-106.50		41.774E+00
			-106.00		43.967E+00
			-105.50		46.850E+00
			-105.00		50.589E+00
			-104.50		55.258E+00
			-104.00		61.529E+00
			-103.50		69.228E+00
			-103.00		78.878E+00
			-102.50		89.781E+00
			-102.00		102.51E+00
			-101.50		116.40E+00
			-101.00		131.26E+00
			-100.50		146.68E+00
			-100.00		162.53E+00
			-99.50		178.50E+00
			-99.00		194.26E+00
			-98.50		209.63E+00
			-98.00		224.54E+00
			-97.50		238.06E+00
			-97.00		250.37E+00
			-96.50		260.71E+00
			-96.00		269.81E+00
			-95.50		277.12E+00
			-95.00		283.21E+00
			-94.50		288.03E+00
			-94.00		292.17E+00
			-93.50		295.59E+00
			-93.00		298.50E+00
			-92.50		301.02E+00
			-92.00		303.05E+00
			-91.50		304.79E+00
			-91.00		306.44E+00
			-90.50		308.06E+00
			-90.00		309.69E+00
			-89.50		311.23E+00
			-89.00		312.59E+00
			-88.50		313.86E+00
			-88.00		315.05E+00
			-87.50		316.23E+00
			-87.00		317.40E+00
			-86.50		318.54E+00
			-86.00		319.66E+00
			-85.50		320.72E+00
			-85.00		321.82E+00
			-84.50		322.93E+00
			-84.00		324.02E+00
			-83.50		325.12E+00
			-83.00		326.23E+00
			-82.50		327.24E+00
			-82.00		328.18E+00
			-81.50		329.16E+00
			-81.00		330.16E+00
			-80.50		331.14E+00
			-80.00		332.17E+00
			-79.50		333.16E+00
			-79.00		334.11E+00
			-78.50		335.08E+00
			-78.00		336.07E+00
			-77.50		337.07E+00
			-77.00		337.99E+00
			-76.50		338.86E+00
			-76.00		339.72E+00
			-75.50		340.62E+00
			-75.00		341.58E+00
			-74.50		342.56E+00
			-74.00		343.55E+00
			-73.50		344.50E+00
			-73.00		345.41E+00
			-72.50		346.27E+00
			-72.00		347.12E+00
			-71.50		348.01E+00
			-71.00		348.90E+00
			-70.50		349.78E+00
			-70.00		350.64E+00
			-69.50		351.43E+00
			-69.00		352.26E+00
			-68.50		353.15E+00
			-68.00		354.08E+00
			-67.50		354.99E+00
			-67.00		355.88E+00
			-66.50		356.78E+00
			-66.00		357.67E+00
			-65.50		358.53E+00
			-65.00		359.32E+00
			-64.50		360.11E+00
			-64.00		360.92E+00
			-63.50		361.72E+00
			-63.00		362.62E+00
			-62.50		363.56E+00
			-62.00		364.46E+00
			-61.50		365.31E+00
			-61.00		366.15E+00
			-60.50		366.96E+00
			-60.00		367.74E+00
			-59.50		368.51E+00
			-59.00		369.32E+00
			-58.50		370.16E+00
			-58.00		371.01E+00
			-57.50		371.87E+00
			-57.00		372.73E+00
			-56.50		373.60E+00
			-56.00		374.48E+00
			-55.50		375.35E+00
			-55.00		376.23E+00
			-54.50		377.06E+00
			-54.00		377.86E+00
			-53.50		378.68E+00
			-53.00		379.50E+00
			-52.50		380.27E+00
			-52.00		381.12E+00
			-51.50		381.99E+00
			-51.00		382.86E+00
			-50.50		383.73E+00
			-50.00		384.50E+00
			-49.50		385.32E+00
			-49.00		386.22E+00
			-48.50		387.11E+00
			-48.00		387.97E+00
			-47.50		388.80E+00
			-47.00		389.59E+00
			-46.50		390.34E+00
			-46.00		391.08E+00
			-45.50		391.91E+00
			-45.00		392.76E+00
			-44.50		393.52E+00
			-44.00		394.29E+00
			-43.50		395.14E+00
			-43.00		395.95E+00
			-42.50		396.76E+00
			-42.00		397.57E+00
			-41.50		398.28E+00
			-41.00		398.99E+00
			-40.50		399.68E+00
			-40.00		400.33E+00
			-39.50		401.02E+00
			-39.00		401.79E+00
			-38.50		402.56E+00
			-38.00		403.32E+00
			-37.50		404.05E+00
			-37.00		404.71E+00
			-36.50		405.39E+00
			-36.00		406.14E+00
			-35.50		406.90E+00
			-35.00		407.60E+00
			-34.50		408.27E+00
			-34.00		408.98E+00
			-33.50		409.77E+00
			-33.00		410.56E+00
			-32.50		411.23E+00
			-32.00		411.86E+00
			-31.50		412.49E+00
			-31.00		413.12E+00
			-30.50		413.76E+00
			-30.00		414.45E+00
			-29.50		415.17E+00
			-29.00		415.86E+00
			-28.50		416.51E+00
			-28.00		417.10E+00
			-27.50		417.71E+00
			-27.00		418.33E+00
			-26.50		418.91E+00
			-26.00		419.42E+00
			-25.50		419.98E+00
			-25.00		420.52E+00
			-24.50		421.04E+00
			-24.00		421.57E+00
			-23.50		422.09E+00
			-23.00		422.57E+00
			-22.50		423.11E+00
			-22.00		423.68E+00
			-21.50		424.21E+00
			-21.00		424.76E+00
			-20.50		425.31E+00
			-20.00		425.86E+00
			-19.50		426.55E+00
			-19.00		427.18E+00
			-18.50		427.56E+00
			-18.00		427.87E+00
			-17.50		428.26E+00
			-17.00		428.66E+00
			-16.50		429.00E+00
			-16.00		429.36E+00
			-15.50		429.76E+00
			-15.00		430.17E+00
			-14.50		430.57E+00
			-14.00		430.91E+00
			-13.50		431.19E+00
			-13.00		431.47E+00
			-12.50		431.75E+00
			-12.00		432.14E+00
			-11.50		432.52E+00
			-11.00		432.79E+00
			-10.50		433.07E+00
			-10.00		433.30E+00
			-9.50		433.53E+00
			-9.00		433.80E+00
			-8.50		434.11E+00
			-8.00		434.41E+00
			-7.50		434.68E+00
			-7.00		434.91E+00
			-6.50		435.15E+00
			-6.00		435.36E+00
			-5.50		435.59E+00
			-5.00		435.76E+00
			-4.50		435.78E+00
			-4.00		435.84E+00
			-3.50		436.02E+00
			-3.00		436.24E+00
			-2.50		436.34E+00
			-2.00		436.30E+00
			-1.50		436.29E+00
			-1.00		436.32E+00
			-0.50		436.33E+00
			0.00		436.31E+00
			0.50		436.33E+00
			1.00		436.32E+00
			1.50		436.29E+00
			2.00		436.30E+00
			2.50		436.34E+00
			3.00		436.24E+00
			3.50		436.02E+00
			4.00		435.84E+00
			4.50		435.78E+00
			5.00		435.76E+00
			5.50		435.59E+00
			6.00		435.36E+00
			6.50		435.15E+00
			7.00		434.91E+00
			7.50		434.68E+00
			8.00		434.41E+00
			8.50		434.11E+00
			9.00		433.80E+00
			9.50		433.53E+00
			10.00		433.30E+00
			10.50		433.07E+00
			11.00		432.79E+00
			11.50		432.52E+00
			12.00		432.14E+00
			12.50		431.75E+00
			13.00		431.47E+00
			13.50		431.19E+00
			14.00		430.91E+00
			14.50		430.57E+00
			15.00		430.17E+00
			15.50		429.76E+00
			16.00		429.36E+00
			16.50		429.00E+00
			17.00		428.66E+00
			17.50		428.26E+00
			18.00		427.87E+00
			18.50		427.56E+00
			19.00		427.18E+00
			19.50		426.55E+00
			20.00		425.86E+00
			20.50		425.31E+00
			21.00		424.76E+00
			21.50		424.21E+00
			22.00		423.68E+00
			22.50		423.11E+00
			23.00		422.57E+00
			23.50		422.09E+00
			24.00		421.57E+00
			24.50		421.04E+00
