BEGIN_SCAN_DATA
	FORMAT=CC-Export V1.9                  
	FILE_CREATION_DATE=16-Apr-2022 17:08:23
	LAST_MODIFIED=16-Apr-2022 17:08:23
	BEGIN_SCAN  1
		TASK_NAME=tba PDD Profiles
		PROGRAM=WaterTankScans
		COMMENT=Average
		MEAS_DATE=15-Mar-2022 16:40:14
		LINAC=MRIdian
		MODALITY=X
		ISOCENTER=900.00
		INPLANE_AXIS=Y
		CROSSPLANE_AXIS=X
		DEPTH_AXIS=Depth
		INPLANE_AXIS_DIR=TARGET_GUN
		CROSSPLANE_AXIS_DIR=LEFT_RIGHT
		DEPTH_AXIS_DIR=UP_DOWN
		ENERGY=6.00
		NOMINAL_DMAX=15.00
		SSD=850.00
		SCD=450.00
		WEDGE_ANGLE=0.00
		FIELD_INPLANE=241.00
		FIELD_CROSSPLANE=241.00
		FIELD_TYPE=RECTANGULAR
		GANTRY=0.00
		GANTRY_UPRIGHT_POSITION=0
		GANTRY_ROTATION=CW
		COLL_ANGLE=0.00
		COLL_OFFSET_INPLANE=0.00
		COLL_OFFSET_CROSSPLANE=0.00
		SCAN_DEVICE=BeamScan
		SCAN_DEVICE_SETUP=BARA_LEFT_RIGHT
		ELECTROMETER=BeamScan
		RANGE_FIELD=LOW
		RANGE_REFERENCE=MEDIUM
		DETECTOR=THIMBLE_CHAMBER
		DETECTOR_RADIUS=2.40
		DETECTOR_NAME=A28MR
		DETECTOR_SN=-
		DETECTOR_CALIBRATION=588000000.00
		DETECTOR_IS_CALIBRATED=0
		DETECTOR_REFERENCE=THIMBLE_CHAMBER
		DETECTOR_REFERENCE_RADIUS=2.75
		DETECTOR_REFERENCE_NAME=A28MR
		DETECTOR_REFERENCE_SN=—
		DETECTOR_REFERENCE_IS_CALIBRATED=0
		DETECTOR_REFERENCE_CALIBRATION=303000000.00
		DETECTOR_HV=300.0
		DETECTOR_REFERENCE_HV=300.0
		DETECTOR_ORIENTATION=HORIZONTAL
		FILTER=FFF
		SCAN_SPEED_PROFILE=10.00
		SCAN_PROF_SPEED_DEP=DEPTH
		SCAN_SPEED_PDD=0.00
		SCAN_PDD_SPEED_DEP=ENERGY
		DETECTOR_TYPE=A28MR
		REF_FIELD_DEPTH=50.00
		REF_FIELD_DEFINED=ISOCENTER
		REF_FIELD_INPLANE=100.00
		REF_FIELD_CROSSPLANE=100.00
		REF_SCAN_POSITIONS=-85.00;-84.00;-83.00;-82.00;-81.00;-80.00;-79.00;-78.00;-77.00;-76.00;-75.00;-74.00;-73.00;-72.00;-71.00;-70.00;-69.00;-68.00;-67.00;-66.00;-65.00;-64.00;-63.00;-62.00;-61.00;-60.00;-59.00;-58.00;-57.00;-56.00;-55.00;-54.00;-53.00;-52.00;-51.00;-50.00;-49.00;-48.00;-47.00;-46.00;-45.00;-44.00;-43.00;-42.00;-41.00;-40.00;-39.00;-38.00;-37.00;-36.00;-35.00;-34.00;-33.00;-32.00;-31.00;-30.00;-29.00;-28.00;-27.00;-26.00;-25.00;-24.00;-23.00;-22.00;-21.00;-20.00;-19.00;-18.00;-17.00;-16.00;-15.00;-14.00;-13.00;-12.00;-11.00;-10.00;-9.00;-8.00;-7.00;-6.00;-5.00;-4.00;-3.00;-2.00;-1.00;0.00;1.00;2.00;3.00;4.00;5.00;6.00;7.00;8.00;9.00;10.00;11.00;12.00;13.00;14.00;15.00;16.00;17.00;18.00;19.00;20.00;21.00;22.00;23.00;24.00;25.00;26.00;27.00;28.00;29.00;30.00;31.00;32.00;33.00;34.00;35.00;36.00;37.00;38.00;39.00;40.00;41.00;42.00;43.00;44.00;45.00;46.00;47.00;48.00;49.00;50.00;51.00;52.00;53.00;54.00;55.00;56.00;57.00;58.00;59.00;60.00;61.00;62.00;63.00;64.00;65.00;66.00;67.00;68.00;69.00;70.00;71.00;72.00;73.00;74.00;75.00;76.00;77.00;78.00;79.00;80.00;81.00;82.00;83.00;84.00;85.00;
		REF_OVERSCAN_FACTOR=1.00
		SCAN_CURVETYPE=CROSSPLANE_PROFILE
		SCAN_DEPTH=20.00
		SCAN_OFFAXIS_INPLANE=0.00
		SCAN_OFFAXIS_CROSSPLANE=0.00
		SCAN_ANGLE=0.00
		SCAN_DIAGONAL=NOT_DIAGONAL
		SCAN_DIRECTION=POSITIVE
		MEAS_MEDIUM=WATER
		MEAS_PRESET=MEAS_CONTINUOUS_REFERENCE_SCAN
		MEAS_TIME=0.100
		MEAS_UNIT=A.U.
		INCLINATION_ANGLE=0.00
		PRESSURE=1013.25
		TEMPERATURE=20.00
		NORM_TEMPERATURE=20.00
		CORRECTION_FACTOR=1.0000
		EXPECTED_MAX_DOSE_RATE=3.00
		EPOM_DEPTH_SHIFT=0.2
		EPOM_MODE=SHIFT_PROTOCOL
		CORRECTIONS=SMOOTHED_CORR;CAX_CORR;INTERPOLATED_CORR;SYMMETRY_CORR;ADD_CURVES_CORR;
		BEGIN_DATA
			-170.00		9.7579E+00
			-169.50		9.7477E+00
			-169.00		9.8149E+00
			-168.50		9.8911E+00
			-168.00		9.9619E+00
			-167.50		10.049E+00
			-167.00		10.145E+00
			-166.50		10.218E+00
			-166.00		10.280E+00
			-165.50		10.377E+00
			-165.00		10.486E+00
			-164.50		10.583E+00
			-164.00		10.661E+00
			-163.50		10.713E+00
			-163.00		10.776E+00
			-162.50		10.872E+00
			-162.00		10.970E+00
			-161.50		11.059E+00
			-161.00		11.151E+00
			-160.50		11.252E+00
			-160.00		11.344E+00
			-159.50		11.446E+00
			-159.00		11.551E+00
			-158.50		11.644E+00
			-158.00		11.750E+00
			-157.50		11.871E+00
			-157.00		11.969E+00
			-156.50		12.055E+00
			-156.00		12.160E+00
			-155.50		12.262E+00
			-155.00		12.361E+00
			-154.50		12.475E+00
			-154.00		12.594E+00
			-153.50		12.727E+00
			-153.00		12.848E+00
			-152.50		12.955E+00
			-152.00		13.070E+00
			-151.50		13.184E+00
			-151.00		13.298E+00
			-150.50		13.425E+00
			-150.00		13.563E+00
			-149.50		13.684E+00
			-149.00		13.792E+00
			-148.50		13.922E+00
			-148.00		14.055E+00
			-147.50		14.189E+00
			-147.00		14.334E+00
			-146.50		14.509E+00
			-146.00		14.681E+00
			-145.50		14.846E+00
			-145.00		15.004E+00
			-144.50		15.146E+00
			-144.00		15.292E+00
			-143.50		15.480E+00
			-143.00		15.667E+00
			-142.50		15.833E+00
			-142.00		16.000E+00
			-141.50		16.201E+00
			-141.00		16.416E+00
			-140.50		16.601E+00
			-140.00		16.772E+00
			-139.50		16.939E+00
			-139.00		17.111E+00
			-138.50		17.301E+00
			-138.00		17.489E+00
			-137.50		17.752E+00
			-137.00		18.026E+00
			-136.50		18.256E+00
			-136.00		18.476E+00
			-135.50		18.727E+00
			-135.00		18.997E+00
			-134.50		19.266E+00
			-134.00		19.531E+00
			-133.50		19.814E+00
			-133.00		20.087E+00
			-132.50		20.333E+00
			-132.00		20.607E+00
			-131.50		20.983E+00
			-131.00		21.353E+00
			-130.50		21.701E+00
			-130.00		22.066E+00
			-129.50		22.535E+00
			-129.00		23.006E+00
			-128.50		23.440E+00
			-128.00		23.888E+00
			-127.50		24.417E+00
			-127.00		24.931E+00
			-126.50		25.490E+00
			-126.00		26.097E+00
			-125.50		26.896E+00
			-125.00		27.714E+00
			-124.50		28.646E+00
			-124.00		29.622E+00
			-123.50		30.971E+00
			-123.00		32.403E+00
			-122.50		34.429E+00
			-122.00		36.662E+00
			-121.50		40.144E+00
			-121.00		43.955E+00
			-120.50		50.233E+00
			-120.00		57.074E+00
			-119.50		67.382E+00
			-119.00		78.311E+00
			-118.50		92.085E+00
			-118.00		106.43E+00
			-117.50		123.00E+00
			-117.00		139.91E+00
			-116.50		157.53E+00
			-116.00		175.24E+00
			-115.50		192.73E+00
			-115.00		209.98E+00
			-114.50		225.40E+00
			-114.00		240.38E+00
			-113.50		252.72E+00
			-113.00		264.51E+00
			-112.50		273.05E+00
			-112.00		281.01E+00
			-111.50		286.22E+00
			-111.00		290.97E+00
			-110.50		294.16E+00
			-110.00		297.17E+00
			-109.50		299.67E+00
			-109.00		301.98E+00
			-108.50		303.81E+00
			-108.00		305.58E+00
			-107.50		306.93E+00
			-107.00		308.25E+00
			-106.50		309.53E+00
			-106.00		310.78E+00
			-105.50		311.88E+00
			-105.00		312.97E+00
			-104.50		313.79E+00
			-104.00		314.58E+00
			-103.50		315.61E+00
			-103.00		316.65E+00
			-102.50		317.48E+00
			-102.00		318.32E+00
			-101.50		319.17E+00
			-101.00		320.04E+00
			-100.50		320.91E+00
			-100.00		321.78E+00
			-99.50		322.63E+00
			-99.00		323.48E+00
			-98.50		324.33E+00
			-98.00		325.16E+00
			-97.50		325.95E+00
			-97.00		326.75E+00
			-96.50		327.50E+00
			-96.00		328.28E+00
			-95.50		329.15E+00
			-95.00		330.03E+00
			-94.50		330.96E+00
			-94.00		331.90E+00
			-93.50		332.77E+00
			-93.00		333.63E+00
			-92.50		334.47E+00
			-92.00		335.32E+00
			-91.50		336.18E+00
			-91.00		337.03E+00
			-90.50		337.88E+00
			-90.00		338.71E+00
			-89.50		339.53E+00
			-89.00		340.35E+00
			-88.50		341.17E+00
			-88.00		342.00E+00
			-87.50		342.88E+00
			-87.00		343.74E+00
			-86.50		344.61E+00
			-86.00		345.47E+00
			-85.50		346.32E+00
			-85.00		347.17E+00
			-84.50		348.02E+00
			-84.00		348.86E+00
			-83.50		349.67E+00
			-83.00		350.46E+00
			-82.50		351.34E+00
			-82.00		352.21E+00
			-81.50		353.07E+00
			-81.00		353.92E+00
			-80.50		354.72E+00
			-80.00		355.52E+00
			-79.50		356.40E+00
			-79.00		357.29E+00
			-78.50		358.24E+00
			-78.00		359.18E+00
			-77.50		360.09E+00
			-77.00		360.96E+00
			-76.50		361.77E+00
			-76.00		362.57E+00
			-75.50		363.39E+00
			-75.00		364.21E+00
			-74.50		365.11E+00
			-74.00		366.00E+00
			-73.50		366.93E+00
			-73.00		367.87E+00
			-72.50		368.79E+00
			-72.00		369.70E+00
			-71.50		370.58E+00
			-71.00		371.44E+00
			-70.50		372.32E+00
			-70.00		373.19E+00
			-69.50		374.07E+00
			-69.00		374.97E+00
			-68.50		375.82E+00
			-68.00		376.73E+00
			-67.50		377.64E+00
			-67.00		378.52E+00
			-66.50		379.45E+00
			-66.00		380.35E+00
			-65.50		381.20E+00
			-65.00		382.06E+00
			-64.50		382.91E+00
			-64.00		383.78E+00
			-63.50		384.70E+00
			-63.00		385.61E+00
			-62.50		386.47E+00
			-62.00		387.32E+00
			-61.50		388.13E+00
			-61.00		388.94E+00
			-60.50		389.77E+00
			-60.00		390.61E+00
			-59.50		391.43E+00
			-59.00		392.21E+00
			-58.50		393.07E+00
			-58.00		393.92E+00
			-57.50		394.86E+00
			-57.00		395.83E+00
			-56.50		396.73E+00
			-56.00		397.64E+00
			-55.50		398.52E+00
			-55.00		399.37E+00
			-54.50		400.22E+00
			-54.00		401.06E+00
			-53.50		401.93E+00
			-53.00		402.82E+00
			-52.50		403.77E+00
			-52.00		404.71E+00
			-51.50		405.64E+00
			-51.00		406.58E+00
			-50.50		407.44E+00
			-50.00		408.30E+00
			-49.50		409.16E+00
			-49.00		410.01E+00
			-48.50		410.90E+00
			-48.00		411.80E+00
			-47.50		412.70E+00
			-47.00		413.58E+00
			-46.50		414.45E+00
			-46.00		415.32E+00
			-45.50		416.18E+00
			-45.00		417.04E+00
			-44.50		417.95E+00
			-44.00		418.85E+00
			-43.50		419.77E+00
			-43.00		420.71E+00
			-42.50		421.62E+00
			-42.00		422.54E+00
			-41.50		423.36E+00
			-41.00		424.15E+00
			-40.50		424.85E+00
			-40.00		425.55E+00
			-39.50		426.24E+00
			-39.00		426.96E+00
			-38.50		427.75E+00
			-38.00		428.54E+00
			-37.50		429.43E+00
			-37.00		430.33E+00
			-36.50		431.20E+00
			-36.00		432.07E+00
			-35.50		432.85E+00
			-35.00		433.64E+00
			-34.50		434.36E+00
			-34.00		435.08E+00
			-33.50		435.79E+00
			-33.00		436.52E+00
			-32.50		437.24E+00
			-32.00		437.96E+00
			-31.50		438.63E+00
			-31.00		439.28E+00
			-30.50		439.98E+00
			-30.00		440.73E+00
			-29.50		441.52E+00
			-29.00		442.33E+00
			-28.50		443.05E+00
			-28.00		443.75E+00
			-27.50		444.44E+00
			-27.00		445.14E+00
			-26.50		445.86E+00
			-26.00		446.57E+00
			-25.50		447.22E+00
			-25.00		447.85E+00
			-24.50		448.47E+00
			-24.00		449.10E+00
			-23.50		449.78E+00
			-23.00		450.46E+00
			-22.50		451.09E+00
			-22.00		451.66E+00
			-21.50		452.09E+00
			-21.00		452.50E+00
			-20.50		452.96E+00
			-20.00		453.45E+00
			-19.50		454.08E+00
			-19.00		454.73E+00
			-18.50		455.27E+00
			-18.00		455.80E+00
			-17.50		456.20E+00
			-17.00		456.56E+00
			-16.50		456.98E+00
			-16.00		457.40E+00
			-15.50		457.85E+00
			-15.00		458.31E+00
			-14.50		458.69E+00
			-14.00		459.05E+00
			-13.50		459.40E+00
			-13.00		459.74E+00
			-12.50		460.07E+00
			-12.00		460.40E+00
			-11.50		460.68E+00
			-11.00		460.97E+00
			-10.50		461.28E+00
			-10.00		461.60E+00
			-9.50		461.90E+00
			-9.00		462.20E+00
			-8.50		462.42E+00
			-8.00		462.64E+00
			-7.50		462.93E+00
			-7.00		463.23E+00
			-6.50		463.55E+00
			-6.00		463.86E+00
			-5.50		464.04E+00
			-5.00		464.20E+00
			-4.50		464.30E+00
			-4.00		464.40E+00
			-3.50		464.52E+00
			-3.00		464.64E+00
			-2.50		464.72E+00
			-2.00		464.80E+00
			-1.50		464.87E+00
			-1.00		464.94E+00
			-0.50		464.98E+00
			0.00		465.00E+00
			0.50		464.98E+00
			1.00		464.94E+00
			1.50		464.87E+00
			2.00		464.80E+00
			2.50		464.72E+00
			3.00		464.64E+00
			3.50		464.52E+00
			4.00		464.40E+00
			4.50		464.30E+00
			5.00		464.20E+00
			5.50		464.04E+00
			6.00		463.86E+00
			6.50		463.55E+00
			7.00		463.23E+00
			7.50		462.93E+00
			8.00		462.64E+00
			8.50		462.42E+00
			9.00		462.20E+00
			9.50		461.90E+00
			10.00		461.60E+00
			10.50		461.28E+00
			11.00		460.97E+00
			11.50		460.68E+00
			12.00		460.40E+00
			12.50		460.07E+00
			13.00		459.74E+00
			13.50		459.40E+00
			14.00		459.05E+00
			14.50		458.69E+00
			15.00		458.31E+00
			15.50		457.85E+00
			16.00		457.40E+00
			16.50		456.98E+00
			17.00		456.56E+00
			17.50		456.20E+00
			18.00		455.80E+00
			18.50		455.27E+00
			19.00		454.73E+00
			19.50		454.08E+00
			20.00		453.45E+00
			20.50		452.96E+00
			21.00		452.50E+00
			21.50		452.09E+00
			22.00		451.66E+00
			22.50		451.09E+00
			23.00		450.46E+00
			23.50		449.78E+00
			24.00		449.10E+00
			24.50		448.47E+00
			25.00		447.85E+00
			25.50		447.22E+00
			26.00		446.57E+00
			26.50		445.86E+00
			27.00		445.14E+00
			27.50		444.44E+00
			28.00		443.75E+00
			28.50		443.05E+00
			29.00		442.33E+00
			29.50		441.52E+00
			30.00		440.73E+00
			30.50		439.98E+00
			31.00		439.28E+00
			31.50		438.63E+00
			32.00		437.96E+00
			32.50		437.24E+00
			33.00		436.52E+00
			33.50		435.79E+00
			34.00		435.08E+00
			34.50		434.36E+00
			35.00		433.64E+00
			35.50		432.85E+00
			36.00		432.07E+00
			36.50		431.20E+00
			37.00		430.33E+00
			37.50		429.43E+00
			38.00		428.54E+00
			38.50		427.75E+00
			39.00		426.96E+00
			39.50		426.24E+00
			40.00		425.55E+00
			40.50		424.85E+00
			41.00		424.15E+00
			41.50		423.36E+00
			42.00		422.54E+00
			42.50		421.62E+00
			43.00		420.71E+00
			43.50		419.77E+00
			44.00		418.85E+00
			44.50		417.95E+00
			45.00		417.04E+00
			45.50		416.18E+00
			46.00		415.32E+00
			46.50		414.45E+00
			47.00		413.58E+00
			47.50		412.70E+00
			48.00		411.80E+00
			48.50		410.90E+00
			49.00		410.01E+00
			49.50		409.16E+00
			50.00		408.30E+00
			50.50		407.44E+00
			51.00		406.58E+00
			51.50		405.64E+00
			52.00		404.71E+00
			52.50		403.77E+00
			53.00		402.82E+00
			53.50		401.93E+00
			54.00		401.06E+00
			54.50		400.22E+00
			55.00		399.37E+00
			55.50		398.52E+00
			56.00		397.64E+00
			56.50		396.73E+00
			57.00		395.83E+00
			57.50		394.86E+00
			58.00		393.92E+00
			58.50		393.07E+00
			59.00		392.21E+00
			59.50		391.43E+00
			60.00		390.61E+00
			60.50		389.77E+00
			61.00		388.94E+00
			61.50		388.13E+00
			62.00		387.32E+00
			62.50		386.47E+00
			63.00		385.61E+00
			63.50		384.70E+00
			64.00		383.78E+00
			64.50		382.91E+00
			65.00		382.06E+00
			65.50		381.20E+00
			66.00		380.35E+00
			66.50		379.45E+00
			67.00		378.52E+00
			67.50		377.64E+00
			68.00		376.73E+00
			68.50		375.82E+00
			69.00		374.97E+00
			69.50		374.07E+00
			70.00		373.19E+00
			70.50		372.32E+00
			71.00		371.44E+00
			71.50		370.58E+00
			72.00		369.70E+00
			72.50		368.79E+00
			73.00		367.87E+00
			73.50		366.93E+00
			74.00		366.00E+00
			74.50		365.11E+00
			75.00		364.21E+00
			75.50		363.39E+00
			76.00		362.57E+00
			76.50		361.77E+00
			77.00		360.96E+00
			77.50		360.09E+00
			78.00		359.18E+00
			78.50		358.24E+00
			79.00		357.29E+00
			79.50		356.40E+00
			80.00		355.52E+00
			80.50		354.72E+00
			81.00		353.92E+00
			81.50		353.07E+00
			82.00		352.21E+00
			82.50		351.34E+00
			83.00		350.46E+00
			83.50		349.67E+00
			84.00		348.86E+00
			84.50		348.02E+00
			85.00		347.17E+00
			85.50		346.32E+00
			86.00		345.47E+00
			86.50		344.61E+00
			87.00		343.74E+00
			87.50		342.88E+00
			88.00		342.00E+00
			88.50		341.17E+00
			89.00		340.35E+00
			89.50		339.53E+00
			90.00		338.71E+00
			90.50		337.88E+00
			91.00		337.03E+00
			91.50		336.18E+00
			92.00		335.32E+00
			92.50		334.47E+00
			93.00		333.63E+00
			93.50		332.77E+00
			94.00		331.90E+00
			94.50		330.96E+00
			95.00		330.03E+00
			95.50		329.15E+00
			96.00		328.28E+00
			96.50		327.50E+00
			97.00		326.75E+00
			97.50		325.95E+00
			98.00		325.16E+00
			98.50		324.33E+00
			99.00		323.48E+00
			99.50		322.63E+00
			100.00		321.78E+00
			100.50		320.91E+00
			101.00		320.04E+00
			101.50		319.17E+00
			102.00		318.32E+00
			102.50		317.48E+00
			103.00		316.65E+00
			103.50		315.61E+00
			104.00		314.58E+00
			104.50		313.79E+00
			105.00		312.97E+00
			105.50		311.88E+00
			106.00		310.78E+00
			106.50		309.53E+00
			107.00		308.25E+00
			107.50		306.93E+00
			108.00		305.58E+00
			108.50		303.81E+00
			109.00		301.98E+00
			109.50		299.67E+00
			110.00		297.17E+00
			110.50		294.16E+00
			111.00		290.97E+00
			111.50		286.22E+00
			112.00		281.01E+00
			112.50		273.05E+00
			113.00		264.51E+00
			113.50		252.72E+00
			114.00		240.38E+00
			114.50		225.40E+00
			115.00		209.98E+00
			115.50		192.73E+00
			116.00		175.24E+00
			116.50		157.53E+00
			117.00		139.91E+00
			117.50		123.00E+00
			118.00		106.43E+00
			118.50		92.085E+00
			119.00		78.311E+00
			119.50		67.382E+00
			120.00		57.074E+00
			120.50		50.233E+00
			121.00		43.955E+00
			121.50		40.144E+00
			122.00		36.662E+00
			122.50		34.429E+00
			123.00		32.403E+00
			123.50		30.971E+00
			124.00		29.622E+00
			124.50		28.646E+00
			125.00		27.714E+00
			125.50		26.896E+00
			126.00		26.097E+00
			126.50		25.490E+00
			127.00		24.931E+00
			127.50		24.417E+00
			128.00		23.888E+00
			128.50		23.440E+00
			129.00		23.006E+00
			129.50		22.535E+00
			130.00		22.066E+00
			130.50		21.701E+00
			131.00		21.353E+00
			131.50		20.983E+00
			132.00		20.607E+00
			132.50		20.333E+00
			133.00		20.087E+00
			133.50		19.814E+00
			134.00		19.531E+00
			134.50		19.266E+00
			135.00		18.997E+00
			135.50		18.727E+00
			136.00		18.476E+00
			136.50		18.256E+00
			137.00		18.026E+00
			137.50		17.752E+00
			138.00		17.489E+00
			138.50		17.301E+00
			139.00		17.111E+00
			139.50		16.939E+00
			140.00		16.772E+00
			140.50		16.601E+00
			141.00		16.416E+00
			141.50		16.201E+00
			142.00		16.000E+00
			142.50		15.833E+00
			143.00		15.667E+00
			143.50		15.480E+00
			144.00		15.292E+00
			144.50		15.146E+00
			145.00		15.004E+00
			145.50		14.846E+00
			146.00		14.681E+00
			146.50		14.509E+00
			147.00		14.334E+00
			147.50		14.189E+00
			148.00		14.055E+00
			148.50		13.922E+00
			149.00		13.792E+00
			149.50		13.684E+00
			150.00		13.563E+00
			150.50		13.425E+00
			151.00		13.298E+00
			151.50		13.184E+00
			152.00		13.070E+00
			152.50		12.955E+00
			153.00		12.848E+00
			153.50		12.727E+00
			154.00		12.594E+00
			154.50		12.475E+00
			155.00		12.361E+00
			155.50		12.262E+00
			156.00		12.160E+00
			156.50		12.055E+00
			157.00		11.969E+00
			157.50		11.871E+00
			158.00		11.750E+00
			158.50		11.644E+00
			159.00		11.551E+00
			159.50		11.446E+00
			160.00		11.344E+00
			160.50		11.252E+00
			161.00		11.151E+00
			161.50		11.059E+00
			162.00		10.970E+00
			162.50		10.872E+00
			163.00		10.776E+00
			163.50		10.713E+00
			164.00		10.661E+00
			164.50		10.583E+00
			165.00		10.486E+00
			165.50		10.377E+00
			166.00		10.280E+00
			166.50		10.218E+00
			167.00		10.145E+00
			167.50		10.049E+00
			168.00		9.9619E+00
			168.50		9.8911E+00
			169.00		9.8149E+00
			169.50		9.7477E+00
			170.00		9.7579E+00
		END_DATA
	END_SCAN  1
	BEGIN_SCAN  2
		TASK_NAME=tba PDD Profiles
		PROGRAM=WaterTankScans
		COMMENT=Average
		MEAS_DATE=15-Mar-2022 16:40:45
		LINAC=MRIdian
		MODALITY=X
		ISOCENTER=900.00
		INPLANE_AXIS=Y
		CROSSPLANE_AXIS=X
		DEPTH_AXIS=Depth
		INPLANE_AXIS_DIR=TARGET_GUN
		CROSSPLANE_AXIS_DIR=LEFT_RIGHT
		DEPTH_AXIS_DIR=UP_DOWN
		ENERGY=6.00
		NOMINAL_DMAX=15.00
		SSD=850.00
		SCD=450.00
		WEDGE_ANGLE=0.00
		FIELD_INPLANE=241.00
		FIELD_CROSSPLANE=241.00
		FIELD_TYPE=RECTANGULAR
		GANTRY=0.00
		GANTRY_UPRIGHT_POSITION=0
		GANTRY_ROTATION=CW
		COLL_ANGLE=0.00
		COLL_OFFSET_INPLANE=0.00
		COLL_OFFSET_CROSSPLANE=0.00
		SCAN_DEVICE=BeamScan
		SCAN_DEVICE_SETUP=BARA_LEFT_RIGHT
		ELECTROMETER=BeamScan
		RANGE_FIELD=LOW
		RANGE_REFERENCE=MEDIUM
		DETECTOR=THIMBLE_CHAMBER
		DETECTOR_RADIUS=2.40
		DETECTOR_NAME=A28MR
		DETECTOR_SN=-
		DETECTOR_CALIBRATION=588000000.00
		DETECTOR_IS_CALIBRATED=0
		DETECTOR_REFERENCE=THIMBLE_CHAMBER
		DETECTOR_REFERENCE_RADIUS=2.75
		DETECTOR_REFERENCE_NAME=A28MR
		DETECTOR_REFERENCE_SN=—
		DETECTOR_REFERENCE_IS_CALIBRATED=0
		DETECTOR_REFERENCE_CALIBRATION=303000000.00
		DETECTOR_HV=300.0
		DETECTOR_REFERENCE_HV=300.0
		DETECTOR_ORIENTATION=HORIZONTAL
		FILTER=FFF
		SCAN_SPEED_PROFILE=10.00
		SCAN_PROF_SPEED_DEP=DEPTH
		SCAN_SPEED_PDD=0.00
		SCAN_PDD_SPEED_DEP=ENERGY
		DETECTOR_TYPE=A28MR
		REF_FIELD_DEPTH=50.00
		REF_FIELD_DEFINED=ISOCENTER
		REF_FIELD_INPLANE=100.00
		REF_FIELD_CROSSPLANE=100.00
		REF_SCAN_POSITIONS=-85.00;-84.00;-83.00;-82.00;-81.00;-80.00;-79.00;-78.00;-77.00;-76.00;-75.00;-74.00;-73.00;-72.00;-71.00;-70.00;-69.00;-68.00;-67.00;-66.00;-65.00;-64.00;-63.00;-62.00;-61.00;-60.00;-59.00;-58.00;-57.00;-56.00;-55.00;-54.00;-53.00;-52.00;-51.00;-50.00;-49.00;-48.00;-47.00;-46.00;-45.00;-44.00;-43.00;-42.00;-41.00;-40.00;-39.00;-38.00;-37.00;-36.00;-35.00;-34.00;-33.00;-32.00;-31.00;-30.00;-29.00;-28.00;-27.00;-26.00;-25.00;-24.00;-23.00;-22.00;-21.00;-20.00;-19.00;-18.00;-17.00;-16.00;-15.00;-14.00;-13.00;-12.00;-11.00;-10.00;-9.00;-8.00;-7.00;-6.00;-5.00;-4.00;-3.00;-2.00;-1.00;0.00;1.00;2.00;3.00;4.00;5.00;6.00;7.00;8.00;9.00;10.00;11.00;12.00;13.00;14.00;15.00;16.00;17.00;18.00;19.00;20.00;21.00;22.00;23.00;24.00;25.00;26.00;27.00;28.00;29.00;30.00;31.00;32.00;33.00;34.00;35.00;36.00;37.00;38.00;39.00;40.00;41.00;42.00;43.00;44.00;45.00;46.00;47.00;48.00;49.00;50.00;51.00;52.00;53.00;54.00;55.00;56.00;57.00;58.00;59.00;60.00;61.00;62.00;63.00;64.00;65.00;66.00;67.00;68.00;69.00;70.00;71.00;72.00;73.00;74.00;75.00;76.00;77.00;78.00;79.00;80.00;81.00;82.00;83.00;84.00;85.00;
		REF_OVERSCAN_FACTOR=1.00
		SCAN_CURVETYPE=CROSSPLANE_PROFILE
		SCAN_DEPTH=55.00
		SCAN_OFFAXIS_INPLANE=0.00
		SCAN_OFFAXIS_CROSSPLANE=0.00
		SCAN_ANGLE=0.00
		SCAN_DIAGONAL=NOT_DIAGONAL
		SCAN_DIRECTION=POSITIVE
		MEAS_MEDIUM=WATER
		MEAS_PRESET=MEAS_CONTINUOUS_REFERENCE_SCAN
		MEAS_TIME=0.100
		MEAS_UNIT=A.U.
		INCLINATION_ANGLE=0.00
		PRESSURE=1013.25
		TEMPERATURE=20.00
		NORM_TEMPERATURE=20.00
		CORRECTION_FACTOR=1.0000
		EXPECTED_MAX_DOSE_RATE=3.00
		EPOM_DEPTH_SHIFT=0.2
		EPOM_MODE=SHIFT_PROTOCOL
		CORRECTIONS=SMOOTHED_CORR;CAX_CORR;INTERPOLATED_CORR;SYMMETRY_CORR;ADD_CURVES_CORR;MODIFIED_CORR;
		BEGIN_DATA
			-160.00		16.275E+00
			-159.50		16.275E+00
			-159.00		16.275E+00
			-158.50		16.275E+00
			-158.00		16.740E+00
			-157.50		16.740E+00
			-157.00		17.205E+00
			-156.50		17.205E+00
			-156.00		17.205E+00
			-155.50		17.670E+00
			-155.00		17.670E+00
			-154.50		17.670E+00
			-154.00		18.135E+00
			-153.50		18.135E+00
			-153.00		18.600E+00
			-152.50		18.600E+00
			-152.00		19.065E+00
			-151.50		19.065E+00
			-151.00		19.065E+00
			-150.50		19.530E+00
			-150.00		19.530E+00
			-149.50		19.995E+00
			-149.00		19.995E+00
			-148.50		20.460E+00
			-148.00		20.460E+00
			-147.50		20.925E+00
			-147.00		20.925E+00
			-146.50		21.390E+00
			-146.00		21.390E+00
			-145.50		21.855E+00
			-145.00		21.855E+00
			-144.50		22.320E+00
			-144.00		22.785E+00
			-143.50		22.785E+00
			-143.00		23.250E+00
			-142.50		23.715E+00
			-142.00		23.715E+00
			-141.50		24.180E+00
			-141.00		24.645E+00
			-140.50		24.645E+00
			-140.00		25.110E+00
			-139.50		25.575E+00
			-139.00		25.575E+00
			-138.50		26.040E+00
			-138.00		26.505E+00
			-137.50		26.970E+00
			-137.00		27.435E+00
			-136.50		27.900E+00
			-136.00		27.900E+00
			-135.50		28.830E+00
			-135.00		29.295E+00
			-134.50		29.760E+00
			-134.00		30.225E+00
			-133.50		30.690E+00
			-133.00		31.155E+00
			-132.50		32.085E+00
			-132.00		32.550E+00
			-131.50		33.015E+00
			-131.00		33.945E+00
			-130.50		34.410E+00
			-130.00		35.340E+00
			-129.50		36.270E+00
			-129.00		37.665E+00
			-128.50		38.595E+00
			-128.00		39.990E+00
			-127.50		41.385E+00
			-127.00		43.710E+00
			-126.50		46.035E+00
			-126.00		49.290E+00
			-125.50		53.475E+00
			-125.00		58.590E+00
			-124.50		65.565E+00
			-124.00		73.470E+00
			-123.50		83.700E+00
			-123.00		94.860E+00
			-122.50		107.42E+00
			-122.00		120.43E+00
			-121.50		134.85E+00
			-121.00		148.80E+00
			-120.50		163.68E+00
			-120.00		178.56E+00
			-119.50		192.51E+00
			-119.00		205.99E+00
			-118.50		218.55E+00
			-118.00		229.71E+00
			-117.50		239.94E+00
			-117.00		248.31E+00
			-116.50		255.75E+00
			-116.00		261.33E+00
			-115.50		265.98E+00
			-115.00		269.70E+00
			-114.50		272.96E+00
			-114.00		275.74E+00
			-113.50		278.07E+00
			-113.00		279.93E+00
			-112.50		281.79E+00
			-112.00		283.19E+00
			-111.50		284.58E+00
			-111.00		285.98E+00
			-110.50		287.37E+00
			-110.00		288.76E+00
			-109.50		289.70E+00
			-109.00		291.09E+00
			-108.50		292.02E+00
			-108.00		292.95E+00
			-107.50		293.88E+00
			-107.00		294.81E+00
			-106.50		295.74E+00
			-106.00		296.67E+00
			-105.50		297.60E+00
			-105.00		298.53E+00
			-104.50		299.46E+00
			-104.00		300.39E+00
			-103.50		301.32E+00
			-103.00		302.25E+00
			-102.50		303.18E+00
			-102.00		304.11E+00
			-101.50		305.04E+00
			-101.00		305.97E+00
			-100.50		306.90E+00
			-100.00		307.83E+00
			-99.50		308.30E+00
			-99.00		309.23E+00
			-98.50		310.15E+00
			-98.00		310.62E+00
			-97.50		311.55E+00
			-97.00		312.48E+00
			-96.50		313.41E+00
			-96.00		314.34E+00
			-95.50		315.27E+00
			-95.00		315.74E+00
			-94.50		316.67E+00
			-94.00		317.60E+00
			-93.50		318.52E+00
			-93.00		319.45E+00
			-92.50		319.92E+00
			-92.00		320.85E+00
			-91.50		321.78E+00
			-91.00		322.25E+00
			-90.50		323.18E+00
			-90.00		324.10E+00
			-89.50		325.04E+00
			-89.00		325.50E+00
			-88.50		326.43E+00
			-88.00		327.36E+00
			-87.50		328.29E+00
			-87.00		328.76E+00
			-86.50		329.69E+00
			-86.00		330.61E+00
			-85.50		331.55E+00
			-85.00		332.48E+00
			-84.50		332.94E+00
			-84.00		333.87E+00
			-83.50		334.80E+00
			-83.00		335.27E+00
			-82.50		336.20E+00
			-82.00		337.13E+00
			-81.50		338.05E+00
			-81.00		338.99E+00
			-80.50		339.45E+00
			-80.00		340.38E+00
			-79.50		341.31E+00
			-79.00		342.24E+00
			-78.50		343.17E+00
			-78.00		343.64E+00
			-77.50		344.57E+00
			-77.00		345.50E+00
			-76.50		346.43E+00
			-76.00		346.89E+00
			-75.50		347.82E+00
			-75.00		348.75E+00
			-74.50		349.68E+00
			-74.00		350.61E+00
			-73.50		351.08E+00
			-73.00		352.01E+00
			-72.50		352.94E+00
			-72.00		353.40E+00
			-71.50		354.33E+00
			-71.00		355.26E+00
			-70.50		356.19E+00
			-70.00		357.12E+00
			-69.50		357.59E+00
			-69.00		358.52E+00
			-68.50		359.45E+00
			-68.00		360.38E+00
			-67.50		360.84E+00
			-67.00		361.77E+00
			-66.50		362.70E+00
			-66.00		363.63E+00
			-65.50		364.10E+00
			-65.00		365.02E+00
			-64.50		365.95E+00
			-64.00		366.89E+00
			-63.50		367.35E+00
			-63.00		368.28E+00
			-62.50		369.21E+00
			-62.00		369.68E+00
			-61.50		370.60E+00
			-61.00		371.54E+00
			-60.50		372.00E+00
			-60.00		372.93E+00
			-59.50		373.86E+00
			-59.00		374.79E+00
			-58.50		375.72E+00
			-58.00		376.19E+00
			-57.50		377.11E+00
			-57.00		378.05E+00
			-56.50		378.51E+00
			-56.00		379.44E+00
			-55.50		380.37E+00
			-55.00		381.30E+00
			-54.50		381.77E+00
			-54.00		382.70E+00
			-53.50		383.63E+00
			-53.00		384.55E+00
			-52.50		385.49E+00
			-52.00		385.95E+00
			-51.50		386.88E+00
			-51.00		387.81E+00
			-50.50		388.27E+00
			-50.00		389.20E+00
			-49.50		390.14E+00
			-49.00		390.60E+00
			-48.50		391.53E+00
			-48.00		392.46E+00
			-47.50		393.39E+00
			-47.00		394.32E+00
			-46.50		394.79E+00
			-46.00		395.71E+00
			-45.50		396.65E+00
			-45.00		397.11E+00
			-44.50		398.04E+00
			-44.00		398.51E+00
			-43.50		399.44E+00
			-43.00		399.90E+00
			-42.50		400.83E+00
			-42.00		401.76E+00
			-41.50		402.69E+00
			-41.00		403.62E+00
			-40.50		404.09E+00
			-40.00		405.02E+00
			-39.50		405.48E+00
			-39.00		406.41E+00
			-38.50		406.88E+00
			-38.00		407.80E+00
			-37.50		408.27E+00
			-37.00		408.74E+00
			-36.50		409.67E+00
			-36.00		410.13E+00
			-35.50		411.06E+00
			-35.00		411.99E+00
			-34.50		412.45E+00
			-34.00		413.39E+00
			-33.50		413.85E+00
			-33.00		414.78E+00
			-32.50		415.25E+00
			-32.00		416.18E+00
			-31.50		416.64E+00
			-31.00		417.57E+00
			-30.50		418.04E+00
			-30.00		418.96E+00
			-29.50		419.43E+00
			-29.00		419.90E+00
			-28.50		420.36E+00
			-28.00		421.29E+00
			-27.50		421.76E+00
			-27.00		422.22E+00
			-26.50		422.69E+00
			-26.00		423.15E+00
			-25.50		424.08E+00
			-25.00		424.55E+00
			-24.50		425.01E+00
			-24.00		425.48E+00
			-23.50		425.94E+00
			-23.00		426.40E+00
			-22.50		427.34E+00
			-22.00		427.80E+00
			-21.50		428.27E+00
			-21.00		428.73E+00
			-20.50		429.20E+00
			-20.00		429.66E+00
			-19.50		430.13E+00
			-19.00		430.59E+00
			-18.50		431.05E+00
			-18.00		431.52E+00
			-17.50		431.99E+00
			-17.00		432.45E+00
			-16.50		432.92E+00
			-16.00		433.38E+00
			-15.50		433.85E+00
			-15.00		434.31E+00
			-14.50		434.31E+00
			-14.00		434.77E+00
			-13.50		434.77E+00
			-13.00		435.24E+00
			-12.50		435.70E+00
			-12.00		435.70E+00
			-11.50		436.17E+00
			-11.00		436.64E+00
			-10.50		437.10E+00
			-10.00		437.10E+00
			-9.50		437.57E+00
			-9.00		438.03E+00
			-8.50		438.03E+00
			-8.00		438.03E+00
			-7.50		438.50E+00
			-7.00		438.50E+00
			-6.50		438.96E+00
			-6.00		438.96E+00
			-5.50		439.43E+00
			-5.00		439.43E+00
			-4.50		439.43E+00
			-4.00		439.89E+00
			-3.50		439.89E+00
			-3.00		439.89E+00
			-2.50		439.89E+00
			-2.00		439.89E+00
			-1.50		439.89E+00
			-1.00		440.35E+00
			-0.50		440.35E+00
			0.00		440.35E+00
			0.50		440.35E+00
			1.00		440.35E+00
			1.50		439.89E+00
			2.00		439.89E+00
			2.50		439.89E+00
			3.00		439.89E+00
			3.50		439.89E+00
			4.00		439.89E+00
			4.50		439.43E+00
			5.00		439.43E+00
			5.50		439.43E+00
			6.00		438.96E+00
			6.50		438.96E+00
			7.00		438.50E+00
