BEGIN_SCAN_DATA
	FORMAT=CC-Export V1.9                  
	FILE_CREATION_DATE=11-Mar-2022 16:35:14
	LAST_MODIFIED=11-Mar-2022 16:35:14
	BEGIN_SCAN  1
		TASK_NAME=tba PDD Profiles
		PROGRAM=WaterTankScans
		COMMENT=Mater Olbia
		MEAS_DATE=08-Feb-2021 09:38:10
		LINAC=MRIdian
		MODALITY=X
		ISOCENTER=900.00
		INPLANE_AXIS=Y
		CROSSPLANE_AXIS=X
		DEPTH_AXIS=Depth
		INPLANE_AXIS_DIR=TARGET_GUN
		CROSSPLANE_AXIS_DIR=LEFT_RIGHT
		DEPTH_AXIS_DIR=UP_DOWN
		ENERGY=6.00
		NOMINAL_DMAX=15.00
		SSD=850.00
		SCD=450.00
		WEDGE_ANGLE=0.00
		FIELD_INPLANE=199.20
		FIELD_CROSSPLANE=199.20
		FIELD_TYPE=RECTANGULAR
		GANTRY=0.00
		GANTRY_UPRIGHT_POSITION=0
		GANTRY_ROTATION=CW
		COLL_ANGLE=0.00
		COLL_OFFSET_INPLANE=0.00
		COLL_OFFSET_CROSSPLANE=0.00
		SCAN_DEVICE=BeamScan
		SCAN_DEVICE_SETUP=BARA_LEFT_RIGHT
		ELECTROMETER=BeamScan
		RANGE_FIELD=LOW
		RANGE_REFERENCE=MEDIUM
		DETECTOR=THIMBLE_CHAMBER
		DETECTOR_RADIUS=2.40
		DETECTOR_NAME=A28MR
		DETECTOR_SN=-
		DETECTOR_CALIBRATION=588000000.00
		DETECTOR_IS_CALIBRATED=0
		DETECTOR_REFERENCE=THIMBLE_CHAMBER
		DETECTOR_REFERENCE_RADIUS=2.75
		DETECTOR_REFERENCE_NAME=A28MR
		DETECTOR_REFERENCE_SN=—
		DETECTOR_REFERENCE_IS_CALIBRATED=0
		DETECTOR_REFERENCE_CALIBRATION=303000000.00
		DETECTOR_HV=300.0
		DETECTOR_REFERENCE_HV=300.0
		DETECTOR_ORIENTATION=HORIZONTAL
		FILTER=FFF
		SCAN_SPEED_PROFILE=10.00
		SCAN_PROF_SPEED_DEP=DEPTH
		SCAN_SPEED_PDD=0.00
		SCAN_PDD_SPEED_DEP=ENERGY
		DETECTOR_TYPE=A28MR
		REF_FIELD_DEPTH=220.00
		REF_FIELD_DEFINED=ISOCENTER
		REF_FIELD_INPLANE=100.00
		REF_FIELD_CROSSPLANE=100.00
		REF_SCAN_POSITIONS=-85.00;-84.00;-83.00;-82.00;-81.00;-80.00;-79.00;-78.00;-77.00;-76.00;-75.00;-74.00;-73.00;-72.00;-71.00;-70.00;-69.00;-68.00;-67.00;-66.00;-65.00;-64.00;-63.00;-62.00;-61.00;-60.00;-59.00;-58.00;-57.00;-56.00;-55.00;-54.00;-53.00;-52.00;-51.00;-50.00;-49.00;-48.00;-47.00;-46.00;-45.00;-44.00;-43.00;-42.00;-41.00;-40.00;-39.00;-38.00;-37.00;-36.00;-35.00;-34.00;-33.00;-32.00;-31.00;-30.00;-29.00;-28.00;-27.00;-26.00;-25.00;-24.00;-23.00;-22.00;-21.00;-20.00;-19.00;-18.00;-17.00;-16.00;-15.00;-14.00;-13.00;-12.00;-11.00;-10.00;-9.00;-8.00;-7.00;-6.00;-5.00;-4.00;-3.00;-2.00;-1.00;0.00;1.00;2.00;3.00;4.00;5.00;6.00;7.00;8.00;9.00;10.00;11.00;12.00;13.00;14.00;15.00;16.00;17.00;18.00;19.00;20.00;21.00;22.00;23.00;24.00;25.00;26.00;27.00;28.00;29.00;30.00;31.00;32.00;33.00;34.00;35.00;36.00;37.00;38.00;39.00;40.00;41.00;42.00;43.00;44.00;45.00;46.00;47.00;48.00;49.00;50.00;51.00;52.00;53.00;54.00;55.00;56.00;57.00;58.00;59.00;60.00;61.00;62.00;63.00;64.00;65.00;66.00;67.00;68.00;69.00;70.00;71.00;72.00;73.00;74.00;75.00;76.00;77.00;78.00;79.00;80.00;81.00;82.00;83.00;84.00;85.00;
		REF_OVERSCAN_FACTOR=1.00
		SCAN_CURVETYPE=CROSSPLANE_PROFILE
		SCAN_DEPTH=55.00
		SCAN_OFFAXIS_INPLANE=0.00
		SCAN_OFFAXIS_CROSSPLANE=0.00
		SCAN_ANGLE=0.00
		SCAN_DIAGONAL=NOT_DIAGONAL
		SCAN_DIRECTION=POSITIVE
		MEAS_MEDIUM=WATER
		MEAS_PRESET=MEAS_CONTINUOUS_REFERENCE_SCAN
		MEAS_TIME=0.100
		MEAS_UNIT=A.U.
		INCLINATION_ANGLE=0.00
		PRESSURE=1013.25
		TEMPERATURE=20.00
		NORM_TEMPERATURE=20.00
		CORRECTION_FACTOR=1.0000
		EXPECTED_MAX_DOSE_RATE=3.00
		EPOM_DEPTH_SHIFT=0.2
		EPOM_MODE=SHIFT_PROTOCOL
		CORRECTIONS=SSD_CORR;CAX_CORR;INTERPOLATED_CORR;SYMMETRY_CORR;
		BEGIN_DATA
			-184.50		7.6304E+00
			-184.00		7.7101E+00
			-183.50		7.6769E+00
			-183.00		7.6930E+00
			-182.50		7.7337E+00
			-182.00		7.8196E+00
			-181.50		7.9008E+00
			-181.00		7.9638E+00
			-180.50		8.0218E+00
			-180.00		8.0368E+00
			-179.50		8.0472E+00
			-179.00		8.0940E+00
			-178.50		8.1397E+00
			-178.00		8.2042E+00
			-177.50		8.2944E+00
			-177.00		8.3663E+00
			-176.50		8.4225E+00
			-176.00		8.4827E+00
			-175.50		8.5129E+00
			-175.00		8.5499E+00
			-174.50		8.6087E+00
			-174.00		8.6679E+00
			-173.50		8.7323E+00
			-173.00		8.8017E+00
			-172.50		8.8770E+00
			-172.00		8.9654E+00
			-171.50		9.0191E+00
			-171.00		9.0443E+00
			-170.50		9.0931E+00
			-170.00		9.1699E+00
			-169.50		9.2472E+00
			-169.00		9.3092E+00
			-168.50		9.3678E+00
			-168.00		9.4469E+00
			-167.50		9.5319E+00
			-167.00		9.5958E+00
			-166.50		9.6439E+00
			-166.00		9.6945E+00
			-165.50		9.7605E+00
			-165.00		9.8067E+00
			-164.50		9.8352E+00
			-164.00		9.8969E+00
			-163.50		10.017E+00
			-163.00		10.140E+00
			-162.50		10.192E+00
			-162.00		10.242E+00
			-161.50		10.313E+00
			-161.00		10.386E+00
			-160.50		10.493E+00
			-160.00		10.616E+00
			-159.50		10.681E+00
			-159.00		10.715E+00
			-158.50		10.781E+00
			-158.00		10.875E+00
			-157.50		10.972E+00
			-157.00		11.059E+00
			-156.50		11.149E+00
			-156.00		11.268E+00
			-155.50		11.389E+00
			-155.00		11.481E+00
			-154.50		11.564E+00
			-154.00		11.639E+00
			-153.50		11.728E+00
			-153.00		11.792E+00
			-152.50		11.847E+00
			-152.00		11.948E+00
			-151.50		12.058E+00
			-151.00		12.173E+00
			-150.50		12.316E+00
			-150.00		12.451E+00
			-149.50		12.542E+00
			-149.00		12.641E+00
			-148.50		12.735E+00
			-148.00		12.825E+00
			-147.50		12.930E+00
			-147.00		13.051E+00
			-146.50		13.223E+00
			-146.00		13.408E+00
			-145.50		13.573E+00
			-145.00		13.716E+00
			-144.50		13.834E+00
			-144.00		13.928E+00
			-143.50		14.040E+00
			-143.00		14.184E+00
			-142.50		14.334E+00
			-142.00		14.502E+00
			-141.50		14.667E+00
			-141.00		14.751E+00
			-140.50		14.818E+00
			-140.00		14.975E+00
			-139.50		15.177E+00
			-139.00		15.349E+00
			-138.50		15.462E+00
			-138.00		15.569E+00
			-137.50		15.753E+00
			-137.00		15.955E+00
			-136.50		16.107E+00
			-136.00		16.256E+00
			-135.50		16.444E+00
			-135.00		16.645E+00
			-134.50		16.837E+00
			-134.00		17.011E+00
			-133.50		17.144E+00
			-133.00		17.295E+00
			-132.50		17.502E+00
			-132.00		17.721E+00
			-131.50		17.950E+00
			-131.00		18.171E+00
			-130.50		18.360E+00
			-130.00		18.547E+00
			-129.50		18.747E+00
			-129.00		18.939E+00
			-128.50		19.125E+00
			-128.00		19.361E+00
			-127.50		19.612E+00
			-127.00		19.872E+00
			-126.50		20.139E+00
			-126.00		20.390E+00
			-125.50		20.603E+00
			-125.00		20.840E+00
			-124.50		21.176E+00
			-124.00		21.522E+00
			-123.50		21.784E+00
			-123.00		22.047E+00
			-122.50		22.361E+00
			-122.00		22.686E+00
			-121.50		22.944E+00
			-121.00		23.191E+00
			-120.50		23.550E+00
			-120.00		23.950E+00
			-119.50		24.302E+00
			-119.00		24.639E+00
			-118.50		25.016E+00
			-118.00		25.365E+00
			-117.50		25.700E+00
			-117.00		26.155E+00
			-116.50		26.619E+00
			-116.00		27.093E+00
			-115.50		27.566E+00
			-115.00		28.097E+00
			-114.50		28.629E+00
			-114.00		29.150E+00
			-113.50		29.700E+00
			-113.00		30.270E+00
			-112.50		30.879E+00
			-112.00		31.539E+00
			-111.50		32.234E+00
			-111.00		32.924E+00
			-110.50		33.694E+00
			-110.00		34.499E+00
			-109.50		35.529E+00
			-109.00		36.589E+00
			-108.50		37.799E+00
			-108.00		39.065E+00
			-107.50		40.647E+00
			-107.00		42.379E+00
			-106.50		44.523E+00
			-106.00		47.055E+00
			-105.50		50.255E+00
			-105.00		54.665E+00
			-104.50		59.690E+00
			-104.00		67.301E+00
			-103.50		75.292E+00
			-103.00		86.152E+00
			-102.50		97.466E+00
			-102.00		111.25E+00
			-101.50		125.68E+00
			-101.00		141.26E+00
			-100.50		157.26E+00
			-100.00		173.70E+00
			-99.50		190.46E+00
			-99.00		206.89E+00
			-98.50		222.78E+00
			-98.00		238.26E+00
			-97.50		251.52E+00
			-97.00		264.26E+00
			-96.50		274.40E+00
			-96.00		284.20E+00
			-95.50		291.21E+00
			-95.00		297.55E+00
			-94.50		302.42E+00
			-94.00		306.60E+00
			-93.50		310.14E+00
			-93.00		313.08E+00
			-92.50		315.76E+00
			-92.00		317.71E+00
			-91.50		319.58E+00
			-91.00		321.29E+00
			-90.50		323.01E+00
			-90.00		324.96E+00
			-89.50		326.93E+00
			-89.00		328.35E+00
			-88.50		329.61E+00
			-88.00		330.71E+00
			-87.50		331.85E+00
			-87.00		333.11E+00
			-86.50		334.39E+00
			-86.00		335.58E+00
			-85.50		336.65E+00
			-85.00		337.84E+00
			-84.50		339.02E+00
			-84.00		340.17E+00
			-83.50		341.37E+00
			-83.00		342.64E+00
			-82.50		343.58E+00
			-82.00		344.39E+00
			-81.50		345.32E+00
			-81.00		346.29E+00
			-80.50		347.30E+00
			-80.00		348.45E+00
			-79.50		349.59E+00
			-79.00		350.63E+00
			-78.50		351.65E+00
			-78.00		352.74E+00
			-77.50		353.84E+00
			-77.00		354.70E+00
			-76.50		355.48E+00
			-76.00		356.28E+00
			-75.50		357.15E+00
			-75.00		358.18E+00
			-74.50		359.29E+00
			-74.00		360.41E+00
			-73.50		361.42E+00
			-73.00		362.38E+00
			-72.50		363.17E+00
			-72.00		363.94E+00
			-71.50		364.82E+00
			-71.00		365.72E+00
			-70.50		366.63E+00
			-70.00		367.51E+00
			-69.50		368.27E+00
			-69.00		369.08E+00
			-68.50		370.08E+00
			-68.00		371.14E+00
			-67.50		372.13E+00
			-67.00		373.07E+00
			-66.50		374.10E+00
			-66.00		375.14E+00
			-65.50		376.09E+00
			-65.00		376.83E+00
			-64.50		377.56E+00
			-64.00		378.30E+00
			-63.50		379.05E+00
			-63.00		380.03E+00
			-62.50		381.08E+00
			-62.00		382.01E+00
			-61.50		382.82E+00
			-61.00		383.64E+00
			-60.50		384.48E+00
			-60.00		385.23E+00
			-59.50		385.99E+00
			-59.00		386.83E+00
			-58.50		387.69E+00
			-58.00		388.56E+00
			-57.50		389.49E+00
			-57.00		390.43E+00
			-56.50		391.38E+00
			-56.00		392.32E+00
			-55.50		393.25E+00
			-55.00		394.17E+00
			-54.50		394.98E+00
			-54.00		395.71E+00
			-53.50		396.56E+00
			-53.00		397.49E+00
			-52.50		398.35E+00
			-52.00		399.38E+00
			-51.50		400.46E+00
			-51.00		401.43E+00
			-50.50		402.32E+00
			-50.00		402.88E+00
			-49.50		403.63E+00
			-49.00		404.64E+00
			-48.50		405.60E+00
			-48.00		406.49E+00
			-47.50		407.29E+00
			-47.00		408.07E+00
			-46.50		408.80E+00
			-46.00		409.55E+00
			-45.50		410.54E+00
			-45.00		411.48E+00
			-44.50		412.06E+00
			-44.00		412.61E+00
			-43.50		413.43E+00
			-43.00		414.23E+00
			-42.50		415.18E+00
			-42.00		416.26E+00
			-41.50		417.21E+00
			-41.00		418.02E+00
			-40.50		418.74E+00
			-40.00		419.26E+00
			-39.50		419.79E+00
			-39.00		420.62E+00
			-38.50		421.49E+00
			-38.00		422.40E+00
			-37.50		423.27E+00
			-37.00		423.91E+00
			-36.50		424.61E+00
			-36.00		425.48E+00
			-35.50		426.35E+00
			-35.00		427.09E+00
			-34.50		427.74E+00
			-34.00		428.47E+00
			-33.50		429.48E+00
			-33.00		430.46E+00
			-32.50		431.13E+00
			-32.00		431.77E+00
			-31.50		432.42E+00
			-31.00		433.07E+00
			-30.50		433.70E+00
			-30.00		434.41E+00
			-29.50		435.19E+00
			-29.00		435.93E+00
			-28.50		436.61E+00
			-28.00		437.22E+00
			-27.50		437.94E+00
			-27.00		438.78E+00
			-26.50		439.46E+00
			-26.00		439.94E+00
			-25.50		440.46E+00
			-25.00		440.90E+00
			-24.50		441.27E+00
			-24.00		441.70E+00
			-23.50		442.20E+00
			-23.00		442.75E+00
			-22.50		443.44E+00
			-22.00		444.21E+00
			-21.50		444.86E+00
			-21.00		445.42E+00
			-20.50		445.90E+00
			-20.00		446.47E+00
			-19.50		447.37E+00
			-19.00		448.21E+00
			-18.50		448.44E+00
			-18.00		448.61E+00
			-17.50		449.14E+00
			-17.00		449.71E+00
			-16.50		450.09E+00
			-16.00		450.42E+00
			-15.50		450.85E+00
			-15.00		451.32E+00
			-14.50		451.77E+00
			-14.00		452.05E+00
			-13.50		452.26E+00
			-13.00		452.48E+00
			-12.50		452.79E+00
			-12.00		453.44E+00
			-11.50		454.05E+00
			-11.00		454.31E+00
			-10.50		454.55E+00
			-10.00		454.74E+00
			-9.50		454.87E+00
			-9.00		455.10E+00
			-8.50		455.42E+00
			-8.00		455.74E+00
			-7.50		456.01E+00
			-7.00		456.23E+00
			-6.50		456.54E+00
			-6.00		456.89E+00
			-5.50		457.30E+00
			-5.00		457.60E+00
			-4.50		457.47E+00
			-4.00		457.38E+00
			-3.50		457.65E+00
			-3.00		458.09E+00
			-2.50		458.16E+00
			-2.00		457.93E+00
			-1.50		457.88E+00
			-1.00		457.99E+00
			-0.50		458.05E+00
			0.00		458.03E+00
			0.50		458.05E+00
			1.00		457.99E+00
			1.50		457.88E+00
			2.00		457.93E+00
			2.50		458.16E+00
			3.00		458.09E+00
			3.50		457.65E+00
			4.00		457.38E+00
			4.50		457.47E+00
			5.00		457.60E+00
			5.50		457.30E+00
			6.00		456.89E+00
			6.50		456.54E+00
			7.00		456.23E+00
			7.50		456.01E+00
			8.00		455.74E+00
			8.50		455.42E+00
			9.00		455.10E+00
			9.50		454.87E+00
			10.00		454.74E+00
			10.50		454.55E+00
			11.00		454.31E+00
			11.50		454.05E+00
			12.00		453.44E+00
			12.50		452.79E+00
			13.00		452.48E+00
			13.50		452.26E+00
			14.00		452.05E+00
			14.50		451.77E+00
			15.00		451.32E+00
			15.50		450.85E+00
			16.00		450.42E+00
			16.50		450.09E+00
			17.00		449.71E+00
			17.50		449.14E+00
			18.00		448.61E+00
			18.50		448.44E+00
			19.00		448.21E+00
			19.50		447.37E+00
			20.00		446.47E+00
			20.50		445.90E+00
			21.00		445.42E+00
			21.50		444.86E+00
			22.00		444.21E+00
			22.50		443.44E+00
			23.00		442.75E+00
			23.50		442.20E+00
			24.00		441.70E+00
			24.50		441.27E+00
			25.00		440.90E+00
			25.50		440.46E+00
			26.00		439.94E+00
			26.50		439.46E+00
			27.00		438.78E+00
			27.50		437.94E+00
			28.00		437.22E+00
			28.50		436.61E+00
			29.00		435.93E+00
			29.50		435.19E+00
			30.00		434.41E+00
			30.50		433.70E+00
			31.00		433.07E+00
			31.50		432.42E+00
			32.00		431.77E+00
			32.50		431.13E+00
			33.00		430.46E+00
			33.50		429.48E+00
			34.00		428.47E+00
			34.50		427.74E+00
			35.00		427.09E+00
			35.50		426.35E+00
			36.00		425.48E+00
			36.50		424.61E+00
			37.00		423.91E+00
			37.50		423.27E+00
			38.00		422.40E+00
			38.50		421.49E+00
			39.00		420.62E+00
			39.50		419.79E+00
			40.00		419.26E+00
			40.50		418.74E+00
			41.00		418.02E+00
			41.50		417.21E+00
			42.00		416.26E+00
			42.50		415.18E+00
			43.00		414.23E+00
			43.50		413.43E+00
			44.00		412.61E+00
			44.50		412.06E+00
			45.00		411.48E+00
			45.50		410.54E+00
			46.00		409.55E+00
			46.50		408.80E+00
			47.00		408.07E+00
			47.50		407.29E+00
			48.00		406.49E+00
			48.50		405.60E+00
			49.00		404.64E+00
			49.50		403.63E+00
			50.00		402.88E+00
			50.50		402.32E+00
			51.00		401.43E+00
			51.50		400.46E+00
			52.00		399.38E+00
			52.50		398.35E+00
			53.00		397.49E+00
			53.50		396.56E+00
			54.00		395.71E+00
			54.50		394.98E+00
			55.00		394.17E+00
			55.50		393.25E+00
			56.00		392.32E+00
			56.50		391.38E+00
			57.00		390.43E+00
			57.50		389.49E+00
			58.00		388.56E+00
			58.50		387.69E+00
			59.00		386.83E+00
			59.50		385.99E+00
			60.00		385.23E+00
			60.50		384.48E+00
			61.00		383.64E+00
			61.50		382.82E+00
			62.00		382.01E+00
			62.50		381.08E+00
			63.00		380.03E+00
			63.50		379.05E+00
			64.00		378.30E+00
			64.50		377.56E+00
			65.00		376.83E+00
			65.50		376.09E+00
			66.00		375.14E+00
			66.50		374.10E+00
			67.00		373.07E+00
			67.50		372.13E+00
			68.00		371.14E+00
			68.50		370.08E+00
			69.00		369.08E+00
			69.50		368.27E+00
			70.00		367.51E+00
			70.50		366.63E+00
			71.00		365.72E+00
			71.50		364.82E+00
			72.00		363.94E+00
			72.50		363.17E+00
			73.00		362.38E+00
			73.50		361.42E+00
			74.00		360.41E+00
			74.50		359.29E+00
			75.00		358.18E+00
			75.50		357.15E+00
			76.00		356.28E+00
			76.50		355.48E+00
			77.00		354.70E+00
			77.50		353.84E+00
			78.00		352.74E+00
			78.50		351.65E+00
			79.00		350.63E+00
			79.50		349.59E+00
			80.00		348.45E+00
			80.50		347.30E+00
			81.00		346.29E+00
			81.50		345.32E+00
			82.00		344.39E+00
			82.50		343.58E+00
			83.00		342.64E+00
			83.50		341.37E+00
			84.00		340.17E+00
			84.50		339.02E+00
			85.00		337.84E+00
			85.50		336.65E+00
			86.00		335.58E+00
			86.50		334.39E+00
			87.00		333.11E+00
			87.50		331.85E+00
			88.00		330.71E+00
			88.50		329.61E+00
			89.00		328.35E+00
			89.50		326.93E+00
			90.00		324.96E+00
			90.50		323.01E+00
			91.00		321.29E+00
			91.50		319.58E+00
			92.00		317.71E+00
			92.50		315.76E+00
			93.00		313.08E+00
			93.50		310.14E+00
			94.00		306.60E+00
			94.50		302.42E+00
			95.00		297.55E+00
			95.50		291.21E+00
			96.00		284.20E+00
			96.50		274.40E+00
			97.00		264.26E+00
			97.50		251.52E+00
			98.00		238.26E+00
			98.50		222.78E+00
			99.00		206.89E+00
			99.50		190.46E+00
			100.00		173.70E+00
			100.50		157.26E+00
			101.00		141.26E+00
			101.50		125.68E+00
			102.00		111.25E+00
			102.50		97.466E+00
			103.00		86.152E+00
			103.50		75.292E+00
			104.00		67.301E+00
			104.50		59.690E+00
			105.00		54.665E+00
			105.50		50.255E+00
			106.00		47.055E+00
			106.50		44.523E+00
			107.00		42.379E+00
			107.50		40.647E+00
			108.00		39.065E+00
			108.50		37.799E+00
			109.00		36.589E+00
			109.50		35.529E+00
			110.00		34.499E+00
			110.50		33.694E+00
			111.00		32.924E+00
			111.50		32.234E+00
			112.00		31.539E+00
			112.50		30.879E+00
			113.00		30.270E+00
			113.50		29.700E+00
			114.00		29.150E+00
			114.50		28.629E+00
			115.00		28.097E+00
			115.50		27.566E+00
			116.00		27.093E+00
			116.50		26.619E+00
			117.00		26.155E+00
			117.50		25.700E+00
			118.00		25.365E+00
			118.50		25.016E+00
			119.00		24.639E+00
			119.50		24.302E+00
			120.00		23.950E+00
			120.50		23.550E+00
			121.00		23.191E+00
			121.50		22.944E+00
			122.00		22.686E+00
			122.50		22.361E+00
			123.00		22.047E+00
			123.50		21.784E+00
			124.00		21.522E+00
			124.50		21.176E+00
			125.00		20.840E+00
			125.50		20.603E+00
			126.00		20.390E+00
			126.50		20.139E+00
			127.00		19.872E+00
			127.50		19.612E+00
			128.00		19.361E+00
			128.50		19.125E+00
			129.00		18.939E+00
			129.50		18.747E+00
			130.00		18.547E+00
			130.50		18.360E+00
			131.00		18.171E+00
			131.50		17.950E+00
			132.00		17.721E+00
			132.50		17.502E+00
			133.00		17.295E+00
			133.50		17.144E+00
			134.00		17.011E+00
			134.50		16.837E+00
			135.00		16.645E+00
			135.50		16.444E+00
			136.00		16.256E+00
			136.50		16.107E+00
			137.00		15.955E+00
			137.50		15.753E+00
			138.00		15.569E+00
			138.50		15.462E+00
			139.00		15.349E+00
			139.50		15.177E+00
			140.00		14.975E+00
			140.50		14.818E+00
			141.00		14.751E+00
			141.50		14.667E+00
			142.00		14.502E+00
			142.50		14.334E+00
			143.00		14.184E+00
			143.50		14.040E+00
			144.00		13.928E+00
			144.50		13.834E+00
			145.00		13.716E+00
			145.50		13.573E+00
			146.00		13.408E+00
			146.50		13.223E+00
			147.00		13.051E+00
			147.50		12.930E+00
			148.00		12.825E+00
			148.50		12.735E+00
			149.00		12.641E+00
			149.50		12.542E+00
			150.00		12.451E+00
			150.50		12.316E+00
			151.00		12.173E+00
			151.50		12.058E+00
			152.00		11.948E+00
			152.50		11.847E+00
			153.00		11.792E+00
			153.50		11.728E+00
			154.00		11.639E+00
			154.50		11.564E+00
			155.00		11.481E+00
			155.50		11.389E+00
			156.00		11.268E+00
			156.50		11.149E+00
			157.00		11.059E+00
			157.50		10.972E+00
			158.00		10.875E+00
			158.50		10.781E+00
			159.00		10.715E+00
			159.50		10.681E+00
			160.00		10.616E+00
			160.50		10.493E+00
			161.00		10.386E+00
			161.50		10.313E+00
			162.00		10.242E+00
			162.50		10.192E+00
			163.00		10.140E+00
			163.50		10.017E+00
			164.00		9.8969E+00
			164.50		9.8352E+00
			165.00		9.8067E+00
			165.50		9.7605E+00
			166.00		9.6945E+00
			166.50		9.6439E+00
			167.00		9.5958E+00
			167.50		9.5319E+00
			168.00		9.4469E+00
			168.50		9.3678E+00
			169.00		9.3092E+00
			169.50		9.2472E+00
			170.00		9.1699E+00
			170.50		9.0931E+00
			171.00		9.0443E+00
			171.50		9.0191E+00
			172.00		8.9654E+00
			172.50		8.8770E+00
			173.00		8.8017E+00
			173.50		8.7323E+00
			174.00		8.6679E+00
			174.50		8.6087E+00
			175.00		8.5499E+00
			175.50		8.5129E+00
			176.00		8.4827E+00
			176.50		8.4225E+00
			177.00		8.3663E+00
			177.50		8.2944E+00
			178.00		8.2042E+00
			178.50		8.1397E+00
			179.00		8.0940E+00
			179.50		8.0472E+00
			180.00		8.0368E+00
			180.50		8.0218E+00
			181.00		7.9638E+00
			181.50		7.9008E+00
			182.00		7.8196E+00
			182.50		7.7337E+00
			183.00		7.6930E+00
			183.50		7.6769E+00
			184.00		7.7101E+00
			184.50		7.6304E+00
		END_DATA
	END_SCAN  1
	BEGIN_SCAN  2
		TASK_NAME=tba PDD Profiles
		PROGRAM=WaterTankScans
		COMMENT=Mater Olbia
		MEAS_DATE=08-Feb-2021 09:38:10
		LINAC=MRIdian
		MODALITY=X
		ISOCENTER=900.00
		INPLANE_AXIS=Y
		CROSSPLANE_AXIS=X
		DEPTH_AXIS=Depth
		INPLANE_AXIS_DIR=TARGET_GUN
		CROSSPLANE_AXIS_DIR=LEFT_RIGHT
		DEPTH_AXIS_DIR=UP_DOWN
		ENERGY=6.00
		NOMINAL_DMAX=15.00
		SSD=850.00
		SCD=450.00
		WEDGE_ANGLE=0.00
		FIELD_INPLANE=199.20
		FIELD_CROSSPLANE=199.20
		FIELD_TYPE=RECTANGULAR
		GANTRY=0.00
		GANTRY_UPRIGHT_POSITION=0
		GANTRY_ROTATION=CW
		COLL_ANGLE=0.00
		COLL_OFFSET_INPLANE=0.00
		COLL_OFFSET_CROSSPLANE=0.00
		SCAN_DEVICE=BeamScan
		SCAN_DEVICE_SETUP=BARA_LEFT_RIGHT
		ELECTROMETER=BeamScan
		RANGE_FIELD=LOW
		RANGE_REFERENCE=MEDIUM
		DETECTOR=THIMBLE_CHAMBER
		DETECTOR_RADIUS=2.40
		DETECTOR_NAME=A28MR
		DETECTOR_SN=-
		DETECTOR_CALIBRATION=588000000.00
		DETECTOR_IS_CALIBRATED=0
		DETECTOR_REFERENCE=THIMBLE_CHAMBER
		DETECTOR_REFERENCE_RADIUS=2.75
		DETECTOR_REFERENCE_NAME=A28MR
		DETECTOR_REFERENCE_SN=—
		DETECTOR_REFERENCE_IS_CALIBRATED=0
		DETECTOR_REFERENCE_CALIBRATION=303000000.00
		DETECTOR_HV=300.0
		DETECTOR_REFERENCE_HV=300.0
		DETECTOR_ORIENTATION=HORIZONTAL
		FILTER=FFF
		SCAN_SPEED_PROFILE=10.00
		SCAN_PROF_SPEED_DEP=DEPTH
		SCAN_SPEED_PDD=0.00
		SCAN_PDD_SPEED_DEP=ENERGY
		DETECTOR_TYPE=A28MR
		REF_FIELD_DEPTH=220.00
		REF_FIELD_DEFINED=ISOCENTER
		REF_FIELD_INPLANE=100.00
		REF_FIELD_CROSSPLANE=100.00
		REF_SCAN_POSITIONS=-85.00;-84.00;-83.00;-82.00;-81.00;-80.00;-79.00;-78.00;-77.00;-76.00;-75.00;-74.00;-73.00;-72.00;-71.00;-70.00;-69.00;-68.00;-67.00;-66.00;-65.00;-64.00;-63.00;-62.00;-61.00;-60.00;-59.00;-58.00;-57.00;-56.00;-55.00;-54.00;-53.00;-52.00;-51.00;-50.00;-49.00;-48.00;-47.00;-46.00;-45.00;-44.00;-43.00;-42.00;-41.00;-40.00;-39.00;-38.00;-37.00;-36.00;-35.00;-34.00;-33.00;-32.00;-31.00;-30.00;-29.00;-28.00;-27.00;-26.00;-25.00;-24.00;-23.00;-22.00;-21.00;-20.00;-19.00;-18.00;-17.00;-16.00;-15.00;-14.00;-13.00;-12.00;-11.00;-10.00;-9.00;-8.00;-7.00;-6.00;-5.00;-4.00;-3.00;-2.00;-1.00;0.00;1.00;2.00;3.00;4.00;5.00;6.00;7.00;8.00;9.00;10.00;11.00;12.00;13.00;14.00;15.00;16.00;17.00;18.00;19.00;20.00;21.00;22.00;23.00;24.00;25.00;26.00;27.00;28.00;29.00;30.00;31.00;32.00;33.00;34.00;35.00;36.00;37.00;38.00;39.00;40.00;41.00;42.00;43.00;44.00;45.00;46.00;47.00;48.00;49.00;50.00;51.00;52.00;53.00;54.00;55.00;56.00;57.00;58.00;59.00;60.00;61.00;62.00;63.00;64.00;65.00;66.00;67.00;68.00;69.00;70.00;71.00;72.00;73.00;74.00;75.00;76.00;77.00;78.00;79.00;80.00;81.00;82.00;83.00;84.00;85.00;
		REF_OVERSCAN_FACTOR=1.00
		SCAN_CURVETYPE=CROSSPLANE_PROFILE
		SCAN_DEPTH=100.00
		SCAN_OFFAXIS_INPLANE=0.00
		SCAN_OFFAXIS_CROSSPLANE=0.00
		SCAN_ANGLE=0.00
		SCAN_DIAGONAL=NOT_DIAGONAL
		SCAN_DIRECTION=POSITIVE
		MEAS_MEDIUM=WATER
		MEAS_PRESET=MEAS_CONTINUOUS_REFERENCE_SCAN
		MEAS_TIME=0.100
		MEAS_UNIT=A.U.
		INCLINATION_ANGLE=0.00
		PRESSURE=1013.25
		TEMPERATURE=20.00
		NORM_TEMPERATURE=20.00
		CORRECTION_FACTOR=1.0000
		EXPECTED_MAX_DOSE_RATE=3.00
		EPOM_DEPTH_SHIFT=0.2
		EPOM_MODE=SHIFT_PROTOCOL
		CORRECTIONS=SSD_CORR;CAX_CORR;INTERPOLATED_CORR;SYMMETRY_CORR;
		BEGIN_DATA
			-183.50		9.0394E+00
			-183.00		8.9743E+00
			-182.50		9.0634E+00
			-182.00		9.1572E+00
			-181.50		9.2248E+00
			-181.00		9.2719E+00
			-180.50		9.3203E+00
			-180.00		9.3898E+00
			-179.50		9.4494E+00
			-179.00		9.5062E+00
			-178.50		9.5808E+00
			-178.00		9.6525E+00
			-177.50		9.7299E+00
			-177.00		9.8302E+00
			-176.50		9.9242E+00
			-176.00		9.9864E+00
			-175.50		10.037E+00
			-175.00		10.108E+00
			-174.50		10.172E+00
			-174.00		10.215E+00
			-173.50		10.299E+00
			-173.00		10.456E+00
			-172.50		10.608E+00
			-172.00		10.666E+00
			-171.50		10.699E+00
			-171.00		10.762E+00
			-170.50		10.854E+00
			-170.00		10.953E+00
			-169.50		11.028E+00
			-169.00		11.114E+00
			-168.50		11.233E+00
			-168.00		11.340E+00
			-167.50		11.386E+00
			-167.00		11.447E+00
			-166.50		11.561E+00
			-166.00		11.637E+00
			-165.50		11.705E+00
			-165.00		11.840E+00
			-164.50		11.983E+00
			-164.00		12.076E+00
			-163.50		12.135E+00
			-163.00		12.198E+00
			-162.50		12.282E+00
			-162.00		12.385E+00
			-161.50		12.535E+00
			-161.00		12.722E+00
			-160.50		12.876E+00
			-160.00		12.950E+00
			-159.50		13.028E+00
			-159.00		13.148E+00
			-158.50		13.240E+00
			-158.00		13.358E+00
			-157.50		13.534E+00
			-157.00		13.707E+00
			-156.50		13.833E+00
			-156.00		13.928E+00
			-155.50		14.021E+00
			-155.00		14.127E+00
			-154.50		14.273E+00
			-154.00		14.444E+00
			-153.50		14.583E+00
			-153.00		14.681E+00
			-152.50		14.816E+00
			-152.00		14.970E+00
			-151.50		15.072E+00
			-151.00		15.184E+00
			-150.50		15.356E+00
			-150.00		15.552E+00
			-149.50		15.723E+00
			-149.00		15.859E+00
			-148.50		15.986E+00
			-148.00		16.131E+00
			-147.50		16.303E+00
			-147.00		16.504E+00
			-146.50		16.716E+00
			-146.00		16.861E+00
			-145.50		16.949E+00
			-145.00		17.124E+00
			-144.50		17.347E+00
			-144.00		17.506E+00
			-143.50		17.650E+00
			-143.00		17.851E+00
			-142.50		18.072E+00
			-142.00		18.258E+00
			-141.50		18.429E+00
			-141.00		18.611E+00
			-140.50		18.797E+00
			-140.00		18.997E+00
			-139.50		19.209E+00
			-139.00		19.394E+00
			-138.50		19.586E+00
			-138.00		19.816E+00
			-137.50		20.078E+00
			-137.00		20.341E+00
			-136.50		20.559E+00
			-136.00		20.741E+00
			-135.50		20.923E+00
			-135.00		21.134E+00
			-134.50		21.375E+00
			-134.00		21.606E+00
			-133.50		21.827E+00
			-133.00		22.062E+00
			-132.50		22.347E+00
			-132.00		22.661E+00
			-131.50		22.958E+00
			-131.00		23.260E+00
			-130.50		23.555E+00
			-130.00		23.809E+00
			-129.50		24.062E+00
			-129.00		24.357E+00
			-128.50		24.674E+00
			-128.00		24.979E+00
			-127.50		25.279E+00
			-127.00		25.591E+00
			-126.50		25.896E+00
			-126.00		26.201E+00
			-125.50		26.555E+00
			-125.00		26.903E+00
			-124.50		27.239E+00
			-124.00		27.607E+00
			-123.50		28.020E+00
			-123.00		28.469E+00
			-122.50		28.911E+00
			-122.00		29.298E+00
			-121.50		29.661E+00
			-121.00		30.077E+00
			-120.50		30.523E+00
			-120.00		30.927E+00
			-119.50		31.371E+00
			-119.00		31.958E+00
			-118.50		32.583E+00
			-118.00		33.140E+00
			-117.50		33.638E+00
			-117.00		34.150E+00
			-116.50		34.771E+00
			-116.00		35.496E+00
			-115.50		36.224E+00
			-115.00		36.965E+00
			-114.50		37.757E+00
			-114.00		38.636E+00
			-113.50		39.641E+00
			-113.00		40.755E+00
			-112.50		41.855E+00
			-112.00		43.232E+00
			-111.50		44.979E+00
			-111.00		47.125E+00
			-110.50		49.714E+00
			-110.00		52.890E+00
			-109.50		56.938E+00
			-109.00		61.929E+00
			-108.50		68.128E+00
			-108.00		75.288E+00
			-107.50		83.572E+00
			-107.00		92.730E+00
			-106.50		102.77E+00
			-106.00		113.51E+00
			-105.50		124.81E+00
			-105.00		136.28E+00
			-104.50		147.80E+00
			-104.00		159.29E+00
			-103.50		170.54E+00
			-103.00		181.20E+00
			-102.50		191.10E+00
			-102.00		199.89E+00
			-101.50		207.65E+00
			-101.00		214.39E+00
			-100.50		220.40E+00
			-100.00		225.27E+00
			-99.50		229.21E+00
			-99.00		232.59E+00
			-98.50		235.45E+00
			-98.00		237.76E+00
			-97.50		239.92E+00
			-97.00		241.99E+00
			-96.50		243.55E+00
			-96.00		244.82E+00
			-95.50		246.21E+00
			-95.00		247.72E+00
			-94.50		249.03E+00
			-94.00		250.14E+00
			-93.50		251.25E+00
			-93.00		252.40E+00
			-92.50		253.39E+00
			-92.00		254.40E+00
			-91.50		255.46E+00
			-91.00		256.26E+00
			-90.50		257.04E+00
			-90.00		257.89E+00
			-89.50		258.76E+00
			-89.00		259.60E+00
			-88.50		260.51E+00
			-88.00		261.54E+00
			-87.50		262.52E+00
			-87.00		263.33E+00
			-86.50		264.10E+00
			-86.00		264.87E+00
			-85.50		265.62E+00
			-85.00		266.49E+00
			-84.50		267.52E+00
			-84.00		268.52E+00
			-83.50		269.35E+00
			-83.00		270.04E+00
			-82.50		270.65E+00
			-82.00		271.34E+00
			-81.50		272.27E+00
			-81.00		273.18E+00
			-80.50		273.85E+00
			-80.00		274.45E+00
			-79.50		275.15E+00
			-79.00		275.73E+00
			-78.50		276.35E+00
			-78.00		277.35E+00
			-77.50		278.41E+00
			-77.00		279.18E+00
			-76.50		279.79E+00
			-76.00		280.54E+00
			-75.50		281.36E+00
			-75.00		282.02E+00
			-74.50		282.58E+00
			-74.00		283.30E+00
			-73.50		284.18E+00
			-73.00		284.95E+00
			-72.50		285.56E+00
			-72.00		286.21E+00
			-71.50		286.93E+00
			-71.00		287.60E+00
			-70.50		288.27E+00
			-70.00		289.10E+00
			-69.50		289.96E+00
			-69.00		290.70E+00
			-68.50		291.33E+00
			-68.00		292.07E+00
			-67.50		292.93E+00
			-67.00		293.81E+00
			-66.50		294.57E+00
			-66.00		295.22E+00
			-65.50		295.83E+00
			-65.00		296.41E+00
			-64.50		297.00E+00
			-64.00		297.71E+00
			-63.50		298.45E+00
			-63.00		299.02E+00
			-62.50		299.61E+00
			-62.00		300.41E+00
			-61.50		301.20E+00
			-61.00		301.89E+00
			-60.50		302.55E+00
			-60.00		303.26E+00
			-59.50		304.01E+00
			-59.00		304.89E+00
			-58.50		305.71E+00
			-58.00		306.39E+00
			-57.50		307.11E+00
			-57.00		307.74E+00
			-56.50		308.35E+00
			-56.00		309.06E+00
			-55.50		309.76E+00
			-55.00		310.27E+00
			-54.50		310.61E+00
			-54.00		310.96E+00
			-53.50		311.58E+00
			-53.00		312.46E+00
			-52.50		313.39E+00
			-52.00		314.21E+00
			-51.50		315.02E+00
			-51.00		315.61E+00
			-50.50		315.93E+00
			-50.00		316.44E+00
			-49.50		317.16E+00
			-49.00		317.86E+00
			-48.50		318.49E+00
			-48.00		319.06E+00
			-47.50		319.66E+00
			-47.00		320.38E+00
