BEGIN_SCAN_DATA
	FORMAT=CC-Export V1.9                  
	FILE_CREATION_DATE=11-Mar-2022 16:37:51
	LAST_MODIFIED=11-Mar-2022 16:37:51
	BEGIN_SCAN  1
		TASK_NAME=tba PDD Profiles
		PROGRAM=WaterTankScans
		COMMENT=Mater Olbia
		MEAS_DATE=08-Feb-2021 09:38:10
		LINAC=MRIdian
		MODALITY=X
		ISOCENTER=900.00
		INPLANE_AXIS=Y
		CROSSPLANE_AXIS=X
		DEPTH_AXIS=Depth
		INPLANE_AXIS_DIR=TARGET_GUN
		CROSSPLANE_AXIS_DIR=LEFT_RIGHT
		DEPTH_AXIS_DIR=UP_DOWN
		ENERGY=6.00
		NOMINAL_DMAX=15.00
		SSD=850.00
		SCD=450.00
		WEDGE_ANGLE=0.00
		FIELD_INPLANE=240.70
		FIELD_CROSSPLANE=240.70
		FIELD_TYPE=RECTANGULAR
		GANTRY=0.00
		GANTRY_UPRIGHT_POSITION=0
		GANTRY_ROTATION=CW
		COLL_ANGLE=0.00
		COLL_OFFSET_INPLANE=0.00
		COLL_OFFSET_CROSSPLANE=0.00
		SCAN_DEVICE=BeamScan
		SCAN_DEVICE_SETUP=BARA_LEFT_RIGHT
		ELECTROMETER=BeamScan
		RANGE_FIELD=LOW
		RANGE_REFERENCE=MEDIUM
		DETECTOR=THIMBLE_CHAMBER
		DETECTOR_RADIUS=2.40
		DETECTOR_NAME=A28MR
		DETECTOR_SN=-
		DETECTOR_CALIBRATION=588000000.00
		DETECTOR_IS_CALIBRATED=0
		DETECTOR_REFERENCE=THIMBLE_CHAMBER
		DETECTOR_REFERENCE_RADIUS=2.75
		DETECTOR_REFERENCE_NAME=A28MR
		DETECTOR_REFERENCE_SN=—
		DETECTOR_REFERENCE_IS_CALIBRATED=0
		DETECTOR_REFERENCE_CALIBRATION=303000000.00
		DETECTOR_HV=300.0
		DETECTOR_REFERENCE_HV=300.0
		DETECTOR_ORIENTATION=HORIZONTAL
		FILTER=FFF
		SCAN_SPEED_PROFILE=10.00
		SCAN_PROF_SPEED_DEP=DEPTH
		SCAN_SPEED_PDD=0.00
		SCAN_PDD_SPEED_DEP=ENERGY
		DETECTOR_TYPE=A28MR
		REF_FIELD_DEPTH=220.00
		REF_FIELD_DEFINED=ISOCENTER
		REF_FIELD_INPLANE=100.00
		REF_FIELD_CROSSPLANE=100.00
		REF_SCAN_POSITIONS=-85.00;-84.00;-83.00;-82.00;-81.00;-80.00;-79.00;-78.00;-77.00;-76.00;-75.00;-74.00;-73.00;-72.00;-71.00;-70.00;-69.00;-68.00;-67.00;-66.00;-65.00;-64.00;-63.00;-62.00;-61.00;-60.00;-59.00;-58.00;-57.00;-56.00;-55.00;-54.00;-53.00;-52.00;-51.00;-50.00;-49.00;-48.00;-47.00;-46.00;-45.00;-44.00;-43.00;-42.00;-41.00;-40.00;-39.00;-38.00;-37.00;-36.00;-35.00;-34.00;-33.00;-32.00;-31.00;-30.00;-29.00;-28.00;-27.00;-26.00;-25.00;-24.00;-23.00;-22.00;-21.00;-20.00;-19.00;-18.00;-17.00;-16.00;-15.00;-14.00;-13.00;-12.00;-11.00;-10.00;-9.00;-8.00;-7.00;-6.00;-5.00;-4.00;-3.00;-2.00;-1.00;0.00;1.00;2.00;3.00;4.00;5.00;6.00;7.00;8.00;9.00;10.00;11.00;12.00;13.00;14.00;15.00;16.00;17.00;18.00;19.00;20.00;21.00;22.00;23.00;24.00;25.00;26.00;27.00;28.00;29.00;30.00;31.00;32.00;33.00;34.00;35.00;36.00;37.00;38.00;39.00;40.00;41.00;42.00;43.00;44.00;45.00;46.00;47.00;48.00;49.00;50.00;51.00;52.00;53.00;54.00;55.00;56.00;57.00;58.00;59.00;60.00;61.00;62.00;63.00;64.00;65.00;66.00;67.00;68.00;69.00;70.00;71.00;72.00;73.00;74.00;75.00;76.00;77.00;78.00;79.00;80.00;81.00;82.00;83.00;84.00;85.00;
		REF_OVERSCAN_FACTOR=1.00
		SCAN_CURVETYPE=CROSSPLANE_PROFILE
		SCAN_DEPTH=55.00
		SCAN_OFFAXIS_INPLANE=0.00
		SCAN_OFFAXIS_CROSSPLANE=0.00
		SCAN_ANGLE=0.00
		SCAN_DIAGONAL=NOT_DIAGONAL
		SCAN_DIRECTION=POSITIVE
		MEAS_MEDIUM=WATER
		MEAS_PRESET=MEAS_CONTINUOUS_REFERENCE_SCAN
		MEAS_TIME=0.100
		MEAS_UNIT=A.U.
		INCLINATION_ANGLE=0.00
		PRESSURE=1013.25
		TEMPERATURE=20.00
		NORM_TEMPERATURE=20.00
		CORRECTION_FACTOR=1.0000
		EXPECTED_MAX_DOSE_RATE=3.00
		EPOM_DEPTH_SHIFT=0.2
		EPOM_MODE=SHIFT_PROTOCOL
		CORRECTIONS=SSD_CORR;CAX_CORR;INTERPOLATED_CORR;SYMMETRY_CORR;
		BEGIN_DATA
			-184.50		11.234E+00
			-184.00		11.314E+00
			-183.50		11.372E+00
			-183.00		11.469E+00
			-182.50		11.550E+00
			-182.00		11.639E+00
			-181.50		11.733E+00
			-181.00		11.806E+00
			-180.50		11.875E+00
			-180.00		11.968E+00
			-179.50		12.068E+00
			-179.00		12.180E+00
			-178.50		12.294E+00
			-178.00		12.341E+00
			-177.50		12.349E+00
			-177.00		12.416E+00
			-176.50		12.561E+00
			-176.00		12.689E+00
			-175.50		12.777E+00
			-175.00		12.870E+00
			-174.50		12.962E+00
			-174.00		13.055E+00
			-173.50		13.208E+00
			-173.00		13.383E+00
			-172.50		13.500E+00
			-172.00		13.593E+00
			-171.50		13.717E+00
			-171.00		13.848E+00
			-170.50		13.957E+00
			-170.00		14.084E+00
			-169.50		14.212E+00
			-169.00		14.253E+00
			-168.50		14.307E+00
			-168.00		14.445E+00
			-167.50		14.592E+00
			-167.00		14.743E+00
			-166.50		14.896E+00
			-166.00		15.024E+00
			-165.50		15.153E+00
			-165.00		15.300E+00
			-164.50		15.463E+00
			-164.00		15.611E+00
			-163.50		15.708E+00
			-163.00		15.831E+00
			-162.50		16.049E+00
			-162.00		16.243E+00
			-161.50		16.335E+00
			-161.00		16.427E+00
			-160.50		16.625E+00
			-160.00		16.834E+00
			-159.50		16.962E+00
			-159.00		17.083E+00
			-158.50		17.257E+00
			-158.00		17.458E+00
			-157.50		17.649E+00
			-157.00		17.820E+00
			-156.50		18.008E+00
			-156.00		18.202E+00
			-155.50		18.382E+00
			-155.00		18.511E+00
			-154.50		18.639E+00
			-154.00		18.846E+00
			-153.50		19.079E+00
			-153.00		19.313E+00
			-152.50		19.521E+00
			-152.00		19.708E+00
			-151.50		19.901E+00
			-151.00		20.107E+00
			-150.50		20.362E+00
			-150.00		20.625E+00
			-149.50		20.845E+00
			-149.00		21.056E+00
			-148.50		21.229E+00
			-148.00		21.407E+00
			-147.50		21.678E+00
			-147.00		21.969E+00
			-146.50		22.275E+00
			-146.00		22.573E+00
			-145.50		22.830E+00
			-145.00		23.070E+00
			-144.50		23.307E+00
			-144.00		23.590E+00
			-143.50		23.919E+00
			-143.00		24.227E+00
			-142.50		24.535E+00
			-142.00		24.885E+00
			-141.50		25.231E+00
			-141.00		25.497E+00
			-140.50		25.770E+00
			-140.00		26.133E+00
			-139.50		26.507E+00
			-139.00		26.894E+00
			-138.50		27.304E+00
			-138.00		27.719E+00
			-137.50		28.136E+00
			-137.00		28.543E+00
			-136.50		28.931E+00
			-136.00		29.354E+00
			-135.50		29.983E+00
			-135.00		30.623E+00
			-134.50		31.166E+00
			-134.00		31.696E+00
			-133.50		32.299E+00
			-133.00		32.923E+00
			-132.50		33.495E+00
			-132.00		34.035E+00
			-131.50		34.695E+00
			-131.00		35.589E+00
			-130.50		36.486E+00
			-130.00		37.494E+00
			-129.50		38.538E+00
			-129.00		39.725E+00
			-128.50		40.933E+00
			-128.00		42.472E+00
			-127.50		44.112E+00
			-127.00		46.543E+00
			-126.50		49.243E+00
			-126.00		52.980E+00
			-125.50		57.637E+00
			-125.00		63.337E+00
			-124.50		70.891E+00
			-124.00		79.047E+00
			-123.50		89.965E+00
			-123.00		101.20E+00
			-122.50		114.55E+00
			-122.00		128.18E+00
			-121.50		142.78E+00
			-121.00		157.54E+00
			-120.50		172.58E+00
			-120.00		187.65E+00
			-119.50		202.21E+00
			-119.00		216.21E+00
			-118.50		229.18E+00
			-118.00		240.50E+00
			-117.50		251.26E+00
			-117.00		259.38E+00
			-116.50		267.15E+00
			-116.00		272.91E+00
			-115.50		278.35E+00
			-115.00		282.22E+00
			-114.50		285.67E+00
			-114.00		288.36E+00
			-113.50		290.69E+00
			-113.00		292.88E+00
			-112.50		294.88E+00
			-112.00		296.60E+00
			-111.50		298.04E+00
			-111.00		299.49E+00
			-110.50		300.90E+00
			-110.00		302.29E+00
			-109.50		303.48E+00
			-109.00		304.64E+00
			-108.50		305.78E+00
			-108.00		306.90E+00
			-107.50		307.99E+00
			-107.00		308.99E+00
			-106.50		309.85E+00
			-106.00		310.74E+00
			-105.50		311.73E+00
			-105.00		312.72E+00
			-104.50		313.67E+00
			-104.00		314.49E+00
			-103.50		315.32E+00
			-103.00		316.26E+00
			-102.50		317.22E+00
			-102.00		318.15E+00
			-101.50		319.08E+00
			-101.00		320.20E+00
			-100.50		321.33E+00
			-100.00		322.23E+00
			-99.50		323.09E+00
			-99.00		323.97E+00
			-98.50		324.74E+00
			-98.00		325.49E+00
			-97.50		326.46E+00
			-97.00		327.45E+00
			-96.50		328.39E+00
			-96.00		329.31E+00
			-95.50		330.03E+00
			-95.00		330.65E+00
			-94.50		331.40E+00
			-94.00		332.36E+00
			-93.50		333.33E+00
			-93.00		334.16E+00
			-92.50		334.96E+00
			-92.00		335.63E+00
			-91.50		336.27E+00
			-91.00		337.11E+00
			-90.50		337.99E+00
			-90.00		338.86E+00
			-89.50		339.69E+00
			-89.00		340.60E+00
			-88.50		341.60E+00
			-88.00		342.54E+00
			-87.50		343.42E+00
			-87.00		344.26E+00
			-86.50		344.93E+00
			-86.00		345.59E+00
			-85.50		346.57E+00
			-85.00		347.56E+00
			-84.50		348.24E+00
			-84.00		348.92E+00
			-83.50		349.79E+00
			-83.00		350.71E+00
			-82.50		351.66E+00
			-82.00		352.60E+00
			-81.50		353.33E+00
			-81.00		354.08E+00
			-80.50		355.04E+00
			-80.00		356.08E+00
			-79.50		357.04E+00
			-79.00		357.74E+00
			-78.50		358.44E+00
			-78.00		359.40E+00
			-77.50		360.36E+00
			-77.00		361.18E+00
			-76.50		361.98E+00
			-76.00		362.78E+00
			-75.50		363.48E+00
			-75.00		364.23E+00
			-74.50		365.16E+00
			-74.00		366.10E+00
			-73.50		366.97E+00
			-73.00		367.77E+00
			-72.50		368.35E+00
			-72.00		368.95E+00
			-71.50		369.83E+00
			-71.00		370.73E+00
			-70.50		371.52E+00
			-70.00		372.29E+00
			-69.50		373.15E+00
			-69.00		374.07E+00
			-68.50		374.97E+00
			-68.00		375.87E+00
			-67.50		376.74E+00
			-67.00		377.64E+00
			-66.50		378.53E+00
			-66.00		379.40E+00
			-65.50		380.32E+00
			-65.00		381.30E+00
			-64.50		382.26E+00
			-64.00		382.85E+00
			-63.50		383.38E+00
			-63.00		384.31E+00
			-62.50		385.46E+00
			-62.00		386.38E+00
			-61.50		387.14E+00
			-61.00		387.92E+00
			-60.50		388.71E+00
			-60.00		389.45E+00
			-59.50		390.21E+00
			-59.00		391.02E+00
			-58.50		391.92E+00
			-58.00		392.83E+00
			-57.50		393.55E+00
			-57.00		394.24E+00
			-56.50		395.23E+00
			-56.00		396.33E+00
			-55.50		397.13E+00
			-55.00		397.88E+00
			-54.50		398.71E+00
			-54.00		399.40E+00
			-53.50		400.18E+00
			-53.00		401.27E+00
			-52.50		402.32E+00
			-52.00		402.92E+00
			-51.50		403.51E+00
			-51.00		404.46E+00
			-50.50		405.47E+00
			-50.00		406.30E+00
			-49.50		407.10E+00
			-49.00		407.98E+00
			-48.50		408.94E+00
			-48.00		409.74E+00
			-47.50		410.33E+00
			-47.00		411.11E+00
			-46.50		412.22E+00
			-46.00		413.18E+00
			-45.50		413.68E+00
			-45.00		414.23E+00
			-44.50		415.19E+00
			-44.00		416.20E+00
			-43.50		416.97E+00
			-43.00		417.64E+00
			-42.50		418.46E+00
			-42.00		419.51E+00
			-41.50		420.44E+00
			-41.00		421.14E+00
			-40.50		421.83E+00
			-40.00		422.55E+00
			-39.50		423.33E+00
			-39.00		424.20E+00
			-38.50		425.07E+00
			-38.00		425.76E+00
			-37.50		426.35E+00
			-37.00		426.78E+00
			-36.50		427.45E+00
			-36.00		428.40E+00
			-35.50		429.25E+00
			-35.00		429.96E+00
			-34.50		430.64E+00
			-34.00		431.42E+00
			-33.50		432.18E+00
			-33.00		432.93E+00
			-32.50		433.81E+00
			-32.00		434.67E+00
			-31.50		435.32E+00
			-31.00		435.92E+00
			-30.50		436.79E+00
			-30.00		437.70E+00
			-29.50		438.22E+00
			-29.00		438.65E+00
			-28.50		439.33E+00
			-28.00		440.07E+00
			-27.50		440.68E+00
			-27.00		441.01E+00
			-26.50		441.41E+00
			-26.00		442.11E+00
			-25.50		442.84E+00
			-25.00		443.54E+00
			-24.50		444.23E+00
			-24.00		444.64E+00
			-23.50		445.04E+00
			-23.00		445.65E+00
			-22.50		446.21E+00
			-22.00		446.85E+00
			-21.50		447.73E+00
			-21.00		448.55E+00
			-20.50		448.90E+00
			-20.00		449.26E+00
			-19.50		449.76E+00
			-19.00		450.26E+00
			-18.50		450.68E+00
			-18.00		451.04E+00
			-17.50		451.55E+00
			-17.00		452.27E+00
			-16.50		452.75E+00
			-16.00		453.05E+00
			-15.50		453.38E+00
			-15.00		453.78E+00
			-14.50		454.14E+00
			-14.00		454.17E+00
			-13.50		454.29E+00
			-13.00		454.78E+00
			-12.50		455.28E+00
			-12.00		455.70E+00
			-11.50		456.11E+00
			-11.00		456.42E+00
			-10.50		456.76E+00
			-10.00		457.19E+00
			-9.50		457.61E+00
			-9.00		457.95E+00
			-8.50		458.15E+00
			-8.00		458.39E+00
			-7.50		458.55E+00
			-7.00		458.70E+00
			-6.50		458.84E+00
			-6.00		459.00E+00
			-5.50		459.32E+00
			-5.00		459.65E+00
			-4.50		459.74E+00
			-4.00		459.73E+00
			-3.50		459.76E+00
			-3.00		459.89E+00
			-2.50		459.95E+00
			-2.00		459.79E+00
			-1.50		459.89E+00
			-1.00		460.39E+00
			-0.50		460.73E+00
			0.00		460.72E+00
			0.50		460.73E+00
			1.00		460.39E+00
			1.50		459.89E+00
			2.00		459.79E+00
			2.50		459.95E+00
			3.00		459.89E+00
			3.50		459.76E+00
			4.00		459.73E+00
			4.50		459.74E+00
			5.00		459.65E+00
			5.50		459.32E+00
			6.00		459.00E+00
			6.50		458.84E+00
			7.00		458.70E+00
			7.50		458.55E+00
			8.00		458.39E+00
			8.50		458.15E+00
			9.00		457.95E+00
			9.50		457.61E+00
			10.00		457.19E+00
			10.50		456.76E+00
			11.00		456.42E+00
			11.50		456.11E+00
			12.00		455.70E+00
			12.50		455.28E+00
			13.00		454.78E+00
			13.50		454.29E+00
			14.00		454.17E+00
			14.50		454.14E+00
			15.00		453.78E+00
			15.50		453.38E+00
			16.00		453.05E+00
			16.50		452.75E+00
			17.00		452.27E+00
			17.50		451.55E+00
			18.00		451.04E+00
			18.50		450.68E+00
			19.00		450.26E+00
			19.50		449.76E+00
			20.00		449.26E+00
			20.50		448.90E+00
			21.00		448.55E+00
			21.50		447.73E+00
			22.00		446.85E+00
			22.50		446.21E+00
			23.00		445.65E+00
			23.50		445.04E+00
			24.00		444.64E+00
			24.50		444.23E+00
			25.00		443.54E+00
			25.50		442.84E+00
			26.00		442.11E+00
			26.50		441.41E+00
			27.00		441.01E+00
			27.50		440.68E+00
			28.00		440.07E+00
			28.50		439.33E+00
			29.00		438.65E+00
			29.50		438.22E+00
			30.00		437.70E+00
			30.50		436.79E+00
			31.00		435.92E+00
			31.50		435.32E+00
			32.00		434.67E+00
			32.50		433.81E+00
			33.00		432.93E+00
			33.50		432.18E+00
			34.00		431.42E+00
			34.50		430.64E+00
			35.00		429.96E+00
			35.50		429.25E+00
			36.00		428.40E+00
			36.50		427.45E+00
			37.00		426.78E+00
			37.50		426.35E+00
			38.00		425.76E+00
			38.50		425.07E+00
			39.00		424.20E+00
			39.50		423.33E+00
			40.00		422.55E+00
			40.50		421.83E+00
			41.00		421.14E+00
			41.50		420.44E+00
			42.00		419.51E+00
			42.50		418.46E+00
			43.00		417.64E+00
			43.50		416.97E+00
			44.00		416.20E+00
			44.50		415.19E+00
			45.00		414.23E+00
			45.50		413.68E+00
			46.00		413.18E+00
			46.50		412.22E+00
			47.00		411.11E+00
			47.50		410.33E+00
			48.00		409.74E+00
			48.50		408.94E+00
			49.00		407.98E+00
			49.50		407.10E+00
			50.00		406.30E+00
			50.50		405.47E+00
			51.00		404.46E+00
			51.50		403.51E+00
			52.00		402.92E+00
			52.50		402.32E+00
			53.00		401.27E+00
			53.50		400.18E+00
			54.00		399.40E+00
			54.50		398.71E+00
			55.00		397.88E+00
			55.50		397.13E+00
			56.00		396.33E+00
			56.50		395.23E+00
			57.00		394.24E+00
			57.50		393.55E+00
			58.00		392.83E+00
			58.50		391.92E+00
			59.00		391.02E+00
			59.50		390.21E+00
			60.00		389.45E+00
			60.50		388.71E+00
			61.00		387.92E+00
			61.50		387.14E+00
			62.00		386.38E+00
			62.50		385.46E+00
			63.00		384.31E+00
			63.50		383.38E+00
			64.00		382.85E+00
			64.50		382.26E+00
			65.00		381.30E+00
			65.50		380.32E+00
			66.00		379.40E+00
			66.50		378.53E+00
			67.00		377.64E+00
			67.50		376.74E+00
			68.00		375.87E+00
			68.50		374.97E+00
			69.00		374.07E+00
			69.50		373.15E+00
			70.00		372.29E+00
			70.50		371.52E+00
			71.00		370.73E+00
			71.50		369.83E+00
			72.00		368.95E+00
			72.50		368.35E+00
			73.00		367.77E+00
			73.50		366.97E+00
			74.00		366.10E+00
			74.50		365.16E+00
			75.00		364.23E+00
			75.50		363.48E+00
			76.00		362.78E+00
			76.50		361.98E+00
			77.00		361.18E+00
			77.50		360.36E+00
			78.00		359.40E+00
			78.50		358.44E+00
			79.00		357.74E+00
			79.50		357.04E+00
			80.00		356.08E+00
			80.50		355.04E+00
			81.00		354.08E+00
			81.50		353.33E+00
			82.00		352.60E+00
			82.50		351.66E+00
			83.00		350.71E+00
			83.50		349.79E+00
			84.00		348.92E+00
			84.50		348.24E+00
			85.00		347.56E+00
			85.50		346.57E+00
			86.00		345.59E+00
			86.50		344.93E+00
			87.00		344.26E+00
			87.50		343.42E+00
			88.00		342.54E+00
			88.50		341.60E+00
			89.00		340.60E+00
			89.50		339.69E+00
			90.00		338.86E+00
			90.50		337.99E+00
			91.00		337.11E+00
			91.50		336.27E+00
			92.00		335.63E+00
			92.50		334.96E+00
			93.00		334.16E+00
			93.50		333.33E+00
			94.00		332.36E+00
			94.50		331.40E+00
			95.00		330.65E+00
			95.50		330.03E+00
			96.00		329.31E+00
			96.50		328.39E+00
			97.00		327.45E+00
			97.50		326.46E+00
			98.00		325.49E+00
			98.50		324.74E+00
			99.00		323.97E+00
			99.50		323.09E+00
			100.00		322.23E+00
			100.50		321.33E+00
			101.00		320.20E+00
			101.50		319.08E+00
			102.00		318.15E+00
			102.50		317.22E+00
			103.00		316.26E+00
			103.50		315.32E+00
			104.00		314.49E+00
			104.50		313.67E+00
			105.00		312.72E+00
			105.50		311.73E+00
			106.00		310.74E+00
			106.50		309.85E+00
			107.00		308.99E+00
			107.50		307.99E+00
			108.00		306.90E+00
			108.50		305.78E+00
			109.00		304.64E+00
			109.50		303.48E+00
			110.00		302.29E+00
			110.50		300.90E+00
			111.00		299.49E+00
			111.50		298.04E+00
			112.00		296.60E+00
			112.50		294.88E+00
			113.00		292.88E+00
			113.50		290.69E+00
			114.00		288.36E+00
			114.50		285.67E+00
			115.00		282.22E+00
			115.50		278.35E+00
			116.00		272.91E+00
			116.50		267.15E+00
			117.00		259.38E+00
			117.50		251.26E+00
			118.00		240.50E+00
			118.50		229.18E+00
			119.00		216.21E+00
			119.50		202.21E+00
			120.00		187.65E+00
			120.50		172.58E+00
			121.00		157.54E+00
			121.50		142.78E+00
			122.00		128.18E+00
			122.50		114.55E+00
			123.00		101.20E+00
			123.50		89.965E+00
			124.00		79.047E+00
			124.50		70.891E+00
			125.00		63.337E+00
			125.50		57.637E+00
			126.00		52.980E+00
			126.50		49.243E+00
			127.00		46.543E+00
			127.50		44.112E+00
			128.00		42.472E+00
			128.50		40.933E+00
			129.00		39.725E+00
			129.50		38.538E+00
			130.00		37.494E+00
			130.50		36.486E+00
			131.00		35.589E+00
			131.50		34.695E+00
			132.00		34.035E+00
			132.50		33.495E+00
			133.00		32.923E+00
			133.50		32.299E+00
			134.00		31.696E+00
			134.50		31.166E+00
			135.00		30.623E+00
			135.50		29.983E+00
			136.00		29.354E+00
			136.50		28.931E+00
			137.00		28.543E+00
			137.50		28.136E+00
			138.00		27.719E+00
			138.50		27.304E+00
			139.00		26.894E+00
			139.50		26.507E+00
			140.00		26.133E+00
			140.50		25.770E+00
			141.00		25.497E+00
			141.50		25.231E+00
			142.00		24.885E+00
			142.50		24.535E+00
			143.00		24.227E+00
			143.50		23.919E+00
			144.00		23.590E+00
			144.50		23.307E+00
			145.00		23.070E+00
			145.50		22.830E+00
			146.00		22.573E+00
			146.50		22.275E+00
			147.00		21.969E+00
			147.50		21.678E+00
			148.00		21.407E+00
			148.50		21.229E+00
			149.00		21.056E+00
			149.50		20.845E+00
			150.00		20.625E+00
			150.50		20.362E+00
			151.00		20.107E+00
			151.50		19.901E+00
			152.00		19.708E+00
			152.50		19.521E+00
			153.00		19.313E+00
			153.50		19.079E+00
			154.00		18.846E+00
			154.50		18.639E+00
			155.00		18.511E+00
			155.50		18.382E+00
			156.00		18.202E+00
			156.50		18.008E+00
			157.00		17.820E+00
			157.50		17.649E+00
			158.00		17.458E+00
			158.50		17.257E+00
			159.00		17.083E+00
			159.50		16.962E+00
			160.00		16.834E+00
			160.50		16.625E+00
			161.00		16.427E+00
			161.50		16.335E+00
			162.00		16.243E+00
			162.50		16.049E+00
			163.00		15.831E+00
			163.50		15.708E+00
			164.00		15.611E+00
			164.50		15.463E+00
			165.00		15.300E+00
			165.50		15.153E+00
			166.00		15.024E+00
			166.50		14.896E+00
			167.00		14.743E+00
			167.50		14.592E+00
			168.00		14.445E+00
			168.50		14.307E+00
			169.00		14.253E+00
			169.50		14.212E+00
			170.00		14.084E+00
			170.50		13.957E+00
			171.00		13.848E+00
			171.50		13.717E+00
			172.00		13.593E+00
			172.50		13.500E+00
			173.00		13.383E+00
			173.50		13.208E+00
			174.00		13.055E+00
			174.50		12.962E+00
			175.00		12.870E+00
			175.50		12.777E+00
			176.00		12.689E+00
			176.50		12.561E+00
			177.00		12.416E+00
			177.50		12.349E+00
			178.00		12.341E+00
			178.50		12.294E+00
			179.00		12.180E+00
			179.50		12.068E+00
			180.00		11.968E+00
			180.50		11.875E+00
			181.00		11.806E+00
			181.50		11.733E+00
			182.00		11.639E+00
			182.50		11.550E+00
			183.00		11.469E+00
			183.50		11.372E+00
			184.00		11.314E+00
			184.50		11.234E+00
		END_DATA
	END_SCAN  1
	BEGIN_SCAN  2
		TASK_NAME=tba PDD Profiles
		PROGRAM=WaterTankScans
		COMMENT=Mater Olbia
		MEAS_DATE=08-Feb-2021 09:38:10
		LINAC=MRIdian
		MODALITY=X
		ISOCENTER=900.00
		INPLANE_AXIS=Y
		CROSSPLANE_AXIS=X
		DEPTH_AXIS=Depth
		INPLANE_AXIS_DIR=TARGET_GUN
		CROSSPLANE_AXIS_DIR=LEFT_RIGHT
		DEPTH_AXIS_DIR=UP_DOWN
		ENERGY=6.00
		NOMINAL_DMAX=15.00
		SSD=850.00
		SCD=450.00
		WEDGE_ANGLE=0.00
		FIELD_INPLANE=240.70
		FIELD_CROSSPLANE=240.70
		FIELD_TYPE=RECTANGULAR
		GANTRY=0.00
		GANTRY_UPRIGHT_POSITION=0
		GANTRY_ROTATION=CW
		COLL_ANGLE=0.00
		COLL_OFFSET_INPLANE=0.00
		COLL_OFFSET_CROSSPLANE=0.00
		SCAN_DEVICE=BeamScan
		SCAN_DEVICE_SETUP=BARA_LEFT_RIGHT
		ELECTROMETER=BeamScan
		RANGE_FIELD=LOW
		RANGE_REFERENCE=MEDIUM
		DETECTOR=THIMBLE_CHAMBER
		DETECTOR_RADIUS=2.40
		DETECTOR_NAME=A28MR
		DETECTOR_SN=-
		DETECTOR_CALIBRATION=588000000.00
		DETECTOR_IS_CALIBRATED=0
		DETECTOR_REFERENCE=THIMBLE_CHAMBER
		DETECTOR_REFERENCE_RADIUS=2.75
		DETECTOR_REFERENCE_NAME=A28MR
		DETECTOR_REFERENCE_SN=—
		DETECTOR_REFERENCE_IS_CALIBRATED=0
		DETECTOR_REFERENCE_CALIBRATION=303000000.00
		DETECTOR_HV=300.0
		DETECTOR_REFERENCE_HV=300.0
		DETECTOR_ORIENTATION=HORIZONTAL
		FILTER=FFF
		SCAN_SPEED_PROFILE=10.00
		SCAN_PROF_SPEED_DEP=DEPTH
		SCAN_SPEED_PDD=0.00
		SCAN_PDD_SPEED_DEP=ENERGY
		DETECTOR_TYPE=A28MR
		REF_FIELD_DEPTH=220.00
		REF_FIELD_DEFINED=ISOCENTER
		REF_FIELD_INPLANE=100.00
		REF_FIELD_CROSSPLANE=100.00
		REF_SCAN_POSITIONS=-85.00;-84.00;-83.00;-82.00;-81.00;-80.00;-79.00;-78.00;-77.00;-76.00;-75.00;-74.00;-73.00;-72.00;-71.00;-70.00;-69.00;-68.00;-67.00;-66.00;-65.00;-64.00;-63.00;-62.00;-61.00;-60.00;-59.00;-58.00;-57.00;-56.00;-55.00;-54.00;-53.00;-52.00;-51.00;-50.00;-49.00;-48.00;-47.00;-46.00;-45.00;-44.00;-43.00;-42.00;-41.00;-40.00;-39.00;-38.00;-37.00;-36.00;-35.00;-34.00;-33.00;-32.00;-31.00;-30.00;-29.00;-28.00;-27.00;-26.00;-25.00;-24.00;-23.00;-22.00;-21.00;-20.00;-19.00;-18.00;-17.00;-16.00;-15.00;-14.00;-13.00;-12.00;-11.00;-10.00;-9.00;-8.00;-7.00;-6.00;-5.00;-4.00;-3.00;-2.00;-1.00;0.00;1.00;2.00;3.00;4.00;5.00;6.00;7.00;8.00;9.00;10.00;11.00;12.00;13.00;14.00;15.00;16.00;17.00;18.00;19.00;20.00;21.00;22.00;23.00;24.00;25.00;26.00;27.00;28.00;29.00;30.00;31.00;32.00;33.00;34.00;35.00;36.00;37.00;38.00;39.00;40.00;41.00;42.00;43.00;44.00;45.00;46.00;47.00;48.00;49.00;50.00;51.00;52.00;53.00;54.00;55.00;56.00;57.00;58.00;59.00;60.00;61.00;62.00;63.00;64.00;65.00;66.00;67.00;68.00;69.00;70.00;71.00;72.00;73.00;74.00;75.00;76.00;77.00;78.00;79.00;80.00;81.00;82.00;83.00;84.00;85.00;
		REF_OVERSCAN_FACTOR=1.00
		SCAN_CURVETYPE=CROSSPLANE_PROFILE
		SCAN_DEPTH=100.00
		SCAN_OFFAXIS_INPLANE=0.00
		SCAN_OFFAXIS_CROSSPLANE=0.00
		SCAN_ANGLE=0.00
		SCAN_DIAGONAL=NOT_DIAGONAL
		SCAN_DIRECTION=POSITIVE
		MEAS_MEDIUM=WATER
		MEAS_PRESET=MEAS_CONTINUOUS_REFERENCE_SCAN
		MEAS_TIME=0.100
		MEAS_UNIT=A.U.
		INCLINATION_ANGLE=0.00
		PRESSURE=1013.25
		TEMPERATURE=20.00
		NORM_TEMPERATURE=20.00
		CORRECTION_FACTOR=1.0000
		EXPECTED_MAX_DOSE_RATE=3.00
		EPOM_DEPTH_SHIFT=0.2
		EPOM_MODE=SHIFT_PROTOCOL
		CORRECTIONS=SSD_CORR;CAX_CORR;INTERPOLATED_CORR;SYMMETRY_CORR;
		BEGIN_DATA
			-183.50		13.805E+00
			-183.00		12.622E+00
			-182.50		12.712E+00
			-182.00		12.840E+00
			-181.50		12.983E+00
			-181.00		13.106E+00
			-180.50		13.201E+00
			-180.00		13.299E+00
			-179.50		13.417E+00
			-179.00		13.493E+00
			-178.50		13.565E+00
			-178.00		13.670E+00
			-177.50		13.760E+00
			-177.00		13.835E+00
			-176.50		13.949E+00
			-176.00		14.080E+00
			-175.50		14.191E+00
			-175.00		14.298E+00
			-174.50		14.425E+00
			-174.00		14.540E+00
			-173.50		14.627E+00
			-173.00		14.771E+00
			-172.50		14.983E+00
			-172.00		15.158E+00
			-171.50		15.287E+00
			-171.00		15.395E+00
			-170.50		15.533E+00
			-170.00		15.733E+00
			-169.50		15.917E+00
			-169.00		15.996E+00
			-168.50		16.053E+00
			-168.00		17.977E+00
			-167.50		18.151E+00
			-167.00		18.262E+00
			-166.50		18.381E+00
			-166.00		18.582E+00
			-165.50		18.802E+00
			-165.00		18.954E+00
			-164.50		19.102E+00
			-164.00		19.325E+00
			-163.50		19.592E+00
			-163.00		19.812E+00
			-162.50		19.949E+00
			-162.00		20.089E+00
			-161.50		20.273E+00
			-161.00		20.466E+00
			-160.50		20.711E+00
			-160.00		21.005E+00
			-159.50		21.232E+00
			-159.00		21.431E+00
			-158.50		21.667E+00
			-158.00		21.906E+00
			-157.50		22.123E+00
			-157.00		22.274E+00
			-156.50		22.427E+00
			-156.00		22.683E+00
			-155.50		22.988E+00
			-155.00		23.276E+00
			-154.50		23.528E+00
			-154.00		23.771E+00
			-153.50		24.039E+00
			-153.00		24.330E+00
			-152.50		24.590E+00
			-152.00		24.856E+00
			-151.50		25.160E+00
			-151.00		25.443E+00
			-150.50		25.716E+00
			-150.00		26.020E+00
			-149.50		26.347E+00
			-149.00		26.657E+00
			-148.50		26.948E+00
			-148.00		27.247E+00
			-147.50		27.566E+00
			-147.00		27.894E+00
			-146.50		28.239E+00
			-146.00		28.649E+00
			-145.50		29.081E+00
			-145.00		29.448E+00
			-144.50		29.819E+00
			-144.00		30.190E+00
			-143.50		30.575E+00
			-143.00		31.039E+00
			-142.50		31.538E+00
			-142.00		31.981E+00
			-141.50		32.381E+00
			-141.00		32.814E+00
			-140.50		33.308E+00
			-140.00		33.788E+00
			-139.50		34.285E+00
			-139.00		34.832E+00
			-138.50		35.414E+00
			-138.00		36.028E+00
			-137.50		36.711E+00
			-137.00		37.377E+00
			-136.50		38.050E+00
			-136.00		38.806E+00
			-135.50		39.772E+00
			-135.00		40.832E+00
			-134.50		41.927E+00
			-134.00		43.070E+00
			-133.50		44.565E+00
			-133.00		46.331E+00
			-132.50		48.661E+00
			-132.00		51.369E+00
			-131.50		54.850E+00
			-131.00		59.353E+00
			-130.50		64.539E+00
			-130.00		71.091E+00
			-129.50		78.309E+00
			-129.00		86.585E+00
			-128.50		95.481E+00
			-128.00		105.10E+00
			-127.50		114.99E+00
			-127.00		125.22E+00
			-126.50		135.60E+00
			-126.00		146.03E+00
			-125.50		156.34E+00
			-125.00		166.18E+00
			-124.50		175.33E+00
			-124.00		183.71E+00
			-123.50		190.89E+00
			-123.00		197.39E+00
			-122.50		202.66E+00
			-122.00		207.32E+00
			-121.50		211.10E+00
			-121.00		214.40E+00
			-120.50		216.99E+00
			-120.00		219.20E+00
			-119.50		221.04E+00
			-119.00		222.77E+00
			-118.50		224.54E+00
			-118.00		225.96E+00
			-117.50		227.18E+00
			-117.00		228.34E+00
			-116.50		229.39E+00
			-116.00		230.33E+00
			-115.50		231.29E+00
			-115.00		232.21E+00
			-114.50		233.07E+00
			-114.00		233.96E+00
			-113.50		234.90E+00
			-113.00		235.79E+00
			-112.50		236.55E+00
			-112.00		237.36E+00
			-111.50		238.29E+00
			-111.00		239.10E+00
			-110.50		239.80E+00
			-110.00		240.63E+00
			-109.50		241.47E+00
			-109.00		242.24E+00
			-108.50		243.00E+00
			-108.00		243.77E+00
			-107.50		244.48E+00
			-107.00		245.16E+00
			-106.50		246.02E+00
			-106.00		246.95E+00
			-105.50		247.79E+00
			-105.00		248.58E+00
			-104.50		249.25E+00
			-104.00		249.80E+00
			-103.50		250.32E+00
			-103.00		250.86E+00
			-102.50		251.51E+00
			-102.00		252.26E+00
			-101.50		253.01E+00
			-101.00		253.89E+00
			-100.50		254.76E+00
			-100.00		255.37E+00
			-99.50		255.89E+00
			-99.00		256.66E+00
			-98.50		257.41E+00
			-98.00		258.10E+00
			-97.50		258.99E+00
			-97.00		259.79E+00
			-96.50		260.40E+00
			-96.00		261.11E+00
			-95.50		261.80E+00
			-95.00		262.43E+00
			-94.50		263.12E+00
			-94.00		263.84E+00
			-93.50		264.45E+00
			-93.00		265.10E+00
			-92.50		265.82E+00
			-92.00		266.43E+00
			-91.50		267.04E+00
			-91.00		267.76E+00
			-90.50		268.50E+00
			-90.00		269.00E+00
			-89.50		269.44E+00
			-89.00		270.17E+00
			-88.50		271.03E+00
			-88.00		271.79E+00
			-87.50		272.48E+00
			-87.00		273.25E+00
			-86.50		274.06E+00
			-86.00		274.80E+00
			-85.50		275.55E+00
			-85.00		276.25E+00
			-84.50		276.74E+00
			-84.00		277.30E+00
			-83.50		277.98E+00
			-83.00		278.61E+00
			-82.50		279.39E+00
			-82.00		280.16E+00
			-81.50		280.74E+00
			-81.00		281.29E+00
			-80.50		281.98E+00
			-80.00		282.68E+00
			-79.50		283.34E+00
			-79.00		284.06E+00
			-78.50		284.79E+00
			-78.00		285.33E+00
			-77.50		285.88E+00
			-77.00		286.49E+00
			-76.50		287.09E+00
			-76.00		287.71E+00
			-75.50		288.37E+00
			-75.00		289.05E+00
			-74.50		289.76E+00
			-74.00		290.47E+00
			-73.50		291.14E+00
			-73.00		291.73E+00
			-72.50		292.40E+00
			-72.00		293.11E+00
			-71.50		293.78E+00
			-71.00		294.40E+00
			-70.50		294.86E+00
			-70.00		295.38E+00
			-69.50		296.11E+00
			-69.00		296.94E+00
			-68.50		297.72E+00
			-68.00		298.42E+00
			-67.50		299.09E+00
			-67.00		299.76E+00
			-66.50		300.33E+00
			-66.00		300.93E+00
			-65.50		301.58E+00
			-65.00		302.14E+00
			-64.50		302.80E+00
			-64.00		303.45E+00
			-63.50		303.98E+00
			-63.00		304.60E+00
			-62.50		305.33E+00
			-62.00		306.07E+00
			-61.50		306.72E+00
			-61.00		307.30E+00
			-60.50		307.96E+00
			-60.00		308.69E+00
			-59.50		309.33E+00
			-59.00		310.01E+00
			-58.50		310.86E+00
			-58.00		311.40E+00
			-57.50		311.86E+00
			-57.00		312.53E+00
			-56.50		313.31E+00
			-56.00		314.04E+00
			-55.50		314.47E+00
			-55.00		314.78E+00
			-54.50		315.29E+00
			-54.00		316.08E+00
			-53.50		316.98E+00
			-53.00		317.73E+00
			-52.50		318.28E+00
			-52.00		318.82E+00
			-51.50		319.48E+00
			-51.00		320.08E+00
			-50.50		320.49E+00
			-50.00		321.10E+00
			-49.50		321.77E+00
			-49.00		322.33E+00
			-48.50		322.92E+00
			-48.00		323.62E+00
			-47.50		324.32E+00
			-47.00		324.95E+00
