BEGIN_SCAN_DATA
	FORMAT=CC-Export V1.9                  
	FILE_CREATION_DATE=15-Mar-2022 16:12:51
	LAST_MODIFIED=15-Mar-2022 16:12:51
	BEGIN_SCAN  1
		TASK_NAME=tba PDD Profiles
		PROGRAM=WaterTankScans
		COMMENT=Average
		MEAS_DATE=15-Mar-2022 16:07:05
		LINAC=MRIdian
		MODALITY=X
		ISOCENTER=900.00
		INPLANE_AXIS=Y
		CROSSPLANE_AXIS=X
		DEPTH_AXIS=Depth
		INPLANE_AXIS_DIR=TARGET_GUN
		CROSSPLANE_AXIS_DIR=LEFT_RIGHT
		DEPTH_AXIS_DIR=UP_DOWN
		ENERGY=6.00
		NOMINAL_DMAX=15.00
		SSD=850.00
		SCD=450.00
		WEDGE_ANGLE=0.00
		FIELD_INPLANE=66.00
		FIELD_CROSSPLANE=66.00
		FIELD_TYPE=RECTANGULAR
		GANTRY_UPRIGHT_POSITION=0
		GANTRY_ROTATION=CW
		COLL_ANGLE=0.00
		COLL_OFFSET_INPLANE=0.00
		COLL_OFFSET_CROSSPLANE=0.00
		SCAN_DEVICE=BeamScan
		SCAN_DEVICE_SETUP=BARA_LEFT_RIGHT
		ELECTROMETER=BeamScan
		RANGE_FIELD=LOW
		RANGE_REFERENCE=MEDIUM
		DETECTOR=THIMBLE_CHAMBER
		DETECTOR_RADIUS=2.40
		DETECTOR_NAME=A28MR
		DETECTOR_SN=-
		DETECTOR_CALIBRATION=588000000.00
		DETECTOR_IS_CALIBRATED=0
		DETECTOR_REFERENCE=THIMBLE_CHAMBER
		DETECTOR_REFERENCE_RADIUS=2.75
		DETECTOR_REFERENCE_NAME=A28MR
		DETECTOR_REFERENCE_SN=—
		DETECTOR_REFERENCE_IS_CALIBRATED=0
		DETECTOR_REFERENCE_CALIBRATION=303000000.00
		DETECTOR_HV=300.0
		DETECTOR_REFERENCE_HV=300.0
		DETECTOR_ORIENTATION=HORIZONTAL
		FILTER=FFF
		SCAN_SPEED_PROFILE=10.00
		SCAN_PROF_SPEED_DEP=DEPTH
		SCAN_SPEED_PDD=0.00
		SCAN_PDD_SPEED_DEP=ENERGY
		DETECTOR_TYPE=A28MR
		REF_FIELD_DEPTH=50.00
		REF_FIELD_DEFINED=ISOCENTER
		REF_FIELD_INPLANE=100.00
		REF_FIELD_CROSSPLANE=100.00
		REF_SCAN_POSITIONS=-85.00;-84.00;-83.00;-82.00;-81.00;-80.00;-79.00;-78.00;-77.00;-76.00;-75.00;-74.00;-73.00;-72.00;-71.00;-70.00;-69.00;-68.00;-67.00;-66.00;-65.00;-64.00;-63.00;-62.00;-61.00;-60.00;-59.00;-58.00;-57.00;-56.00;-55.00;-54.00;-53.00;-52.00;-51.00;-50.00;-49.00;-48.00;-47.00;-46.00;-45.00;-44.00;-43.00;-42.00;-41.00;-40.00;-39.00;-38.00;-37.00;-36.00;-35.00;-34.00;-33.00;-32.00;-31.00;-30.00;-29.00;-28.00;-27.00;-26.00;-25.00;-24.00;-23.00;-22.00;-21.00;-20.00;-19.00;-18.00;-17.00;-16.00;-15.00;-14.00;-13.00;-12.00;-11.00;-10.00;-9.00;-8.00;-7.00;-6.00;-5.00;-4.00;-3.00;-2.00;-1.00;0.00;1.00;2.00;3.00;4.00;5.00;6.00;7.00;8.00;9.00;10.00;11.00;12.00;13.00;14.00;15.00;16.00;17.00;18.00;19.00;20.00;21.00;22.00;23.00;24.00;25.00;26.00;27.00;28.00;29.00;30.00;31.00;32.00;33.00;34.00;35.00;36.00;37.00;38.00;39.00;40.00;41.00;42.00;43.00;44.00;45.00;46.00;47.00;48.00;49.00;50.00;51.00;52.00;53.00;54.00;55.00;56.00;57.00;58.00;59.00;60.00;61.00;62.00;63.00;64.00;65.00;66.00;67.00;68.00;69.00;70.00;71.00;72.00;73.00;74.00;75.00;76.00;77.00;78.00;79.00;80.00;81.00;82.00;83.00;84.00;85.00;
		REF_OVERSCAN_FACTOR=1.00
		SCAN_CURVETYPE=CROSSPLANE_PROFILE
		SCAN_DEPTH=20.00
		SCAN_OFFAXIS_INPLANE=0.00
		SCAN_OFFAXIS_CROSSPLANE=0.00
		SCAN_ANGLE=0.00
		SCAN_DIAGONAL=NOT_DIAGONAL
		SCAN_DIRECTION=POSITIVE
		MEAS_MEDIUM=WATER
		MEAS_PRESET=MEAS_CONTINUOUS_REFERENCE_SCAN
		MEAS_TIME=0.100
		MEAS_UNIT=A.U.
		INCLINATION_ANGLE=0.00
		PRESSURE=1013.25
		TEMPERATURE=20.00
		NORM_TEMPERATURE=20.00
		CORRECTION_FACTOR=1.0000
		EXPECTED_MAX_DOSE_RATE=3.00
		EPOM_DEPTH_SHIFT=0.2
		EPOM_MODE=SHIFT_PROTOCOL
		CORRECTIONS=CAX_CORR;INTERPOLATED_CORR;SYMMETRY_CORR;ADD_CURVES_CORR;
		BEGIN_DATA
			-60.00		5.3589E+00
			-59.50		5.5492E+00
			-59.00		5.6718E+00
			-58.50		5.7664E+00
			-58.00		5.8631E+00
			-57.50		5.9908E+00
			-57.00		6.1208E+00
			-56.50		6.2221E+00
			-56.00		6.3177E+00
			-55.50		6.4556E+00
			-55.00		6.6035E+00
			-54.50		6.7130E+00
			-54.00		6.8169E+00
			-53.50		6.9763E+00
			-53.00		7.1581E+00
			-52.50		7.3400E+00
			-52.00		7.5234E+00
			-51.50		7.7202E+00
			-51.00		7.9016E+00
			-50.50		8.0596E+00
			-50.00		8.2388E+00
			-49.50		8.4676E+00
			-49.00		8.7040E+00
			-48.50		8.9447E+00
			-48.00		9.2023E+00
			-47.50		9.4970E+00
			-47.00		9.7899E+00
			-46.50		10.119E+00
			-46.00		10.481E+00
			-45.50		10.862E+00
			-45.00		11.259E+00
			-44.50		11.706E+00
			-44.00		12.162E+00
			-43.50		12.694E+00
			-43.00		13.269E+00
			-42.50		13.919E+00
			-42.00		14.621E+00
			-41.50		15.461E+00
			-41.00		16.374E+00
			-40.50		17.478E+00
			-40.00		18.700E+00
			-39.50		20.261E+00
			-39.00		21.990E+00
			-38.50		24.371E+00
			-38.00		27.251E+00
			-37.50		31.258E+00
			-37.00		36.139E+00
			-36.50		43.219E+00
			-36.00		51.830E+00
			-35.50		63.984E+00
			-35.00		78.093E+00
			-34.50		95.875E+00
			-34.00		115.33E+00
			-33.50		137.42E+00
			-33.00		160.58E+00
			-32.50		185.20E+00
			-32.00		210.31E+00
			-31.50		235.51E+00
			-31.00		260.09E+00
			-30.50		283.36E+00
			-30.00		305.59E+00
			-29.50		325.16E+00
			-29.00		342.98E+00
			-28.50		357.08E+00
			-28.00		369.49E+00
			-27.50		378.52E+00
			-27.00		386.13E+00
			-26.50		391.76E+00
			-26.00		396.86E+00
			-25.50		400.92E+00
			-25.00		404.39E+00
			-24.50		407.11E+00
			-24.00		409.59E+00
			-23.50		411.43E+00
			-23.00		412.94E+00
			-22.50		414.55E+00
			-22.00		416.16E+00
			-21.50		417.19E+00
			-21.00		418.15E+00
			-20.50		419.44E+00
			-20.00		420.70E+00
			-19.50		421.61E+00
			-19.00		422.50E+00
			-18.50		423.46E+00
			-18.00		424.22E+00
			-17.50		424.76E+00
			-17.00		425.47E+00
			-16.50		426.26E+00
			-16.00		426.96E+00
			-15.50		427.54E+00
			-15.00		428.25E+00
			-14.50		428.82E+00
			-14.00		429.20E+00
			-13.50		429.86E+00
			-13.00		430.53E+00
			-12.50		430.91E+00
			-12.00		431.12E+00
			-11.50		431.52E+00
			-11.00		432.08E+00
			-10.50		432.53E+00
			-10.00		432.92E+00
			-9.50		433.32E+00
			-9.00		433.71E+00
			-8.50		433.96E+00
			-8.00		434.35E+00
			-7.50		434.81E+00
			-7.00		435.17E+00
			-6.50		435.39E+00
			-6.00		435.61E+00
			-5.50		435.91E+00
			-5.00		436.18E+00
			-4.50		436.44E+00
			-4.00		436.72E+00
			-3.50		436.72E+00
			-3.00		436.72E+00
			-2.50		436.91E+00
			-2.00		437.16E+00
			-1.50		437.16E+00
			-1.00		437.07E+00
			-0.50		437.16E+00
			0.00		437.22E+00
			0.50		437.16E+00
			1.00		437.07E+00
			1.50		437.16E+00
			2.00		437.16E+00
			2.50		436.91E+00
			3.00		436.72E+00
			3.50		436.72E+00
			4.00		436.72E+00
			4.50		436.44E+00
			5.00		436.18E+00
			5.50		435.91E+00
			6.00		435.61E+00
			6.50		435.39E+00
			7.00		435.17E+00
			7.50		434.81E+00
			8.00		434.35E+00
			8.50		433.96E+00
			9.00		433.71E+00
			9.50		433.32E+00
			10.00		432.92E+00
			10.50		432.53E+00
			11.00		432.08E+00
			11.50		431.52E+00
			12.00		431.12E+00
			12.50		430.91E+00
			13.00		430.53E+00
			13.50		429.86E+00
			14.00		429.20E+00
			14.50		428.82E+00
			15.00		428.25E+00
			15.50		427.54E+00
			16.00		426.96E+00
			16.50		426.26E+00
			17.00		425.47E+00
			17.50		424.76E+00
			18.00		424.22E+00
			18.50		423.46E+00
			19.00		422.50E+00
			19.50		421.61E+00
			20.00		420.70E+00
			20.50		419.44E+00
			21.00		418.15E+00
			21.50		417.19E+00
			22.00		416.16E+00
			22.50		414.55E+00
			23.00		412.94E+00
			23.50		411.43E+00
			24.00		409.59E+00
			24.50		407.11E+00
			25.00		404.39E+00
			25.50		400.92E+00
			26.00		396.86E+00
			26.50		391.76E+00
			27.00		386.13E+00
			27.50		378.52E+00
			28.00		369.49E+00
			28.50		357.08E+00
			29.00		342.98E+00
			29.50		325.16E+00
			30.00		305.59E+00
			30.50		283.36E+00
			31.00		260.09E+00
			31.50		235.51E+00
			32.00		210.31E+00
			32.50		185.20E+00
			33.00		160.58E+00
			33.50		137.42E+00
			34.00		115.33E+00
			34.50		95.875E+00
			35.00		78.093E+00
			35.50		63.984E+00
			36.00		51.830E+00
			36.50		43.219E+00
			37.00		36.139E+00
			37.50		31.258E+00
			38.00		27.251E+00
			38.50		24.371E+00
			39.00		21.990E+00
			39.50		20.261E+00
			40.00		18.700E+00
			40.50		17.478E+00
			41.00		16.374E+00
			41.50		15.461E+00
			42.00		14.621E+00
			42.50		13.919E+00
			43.00		13.269E+00
			43.50		12.694E+00
			44.00		12.162E+00
			44.50		11.706E+00
			45.00		11.259E+00
			45.50		10.862E+00
			46.00		10.481E+00
			46.50		10.119E+00
			47.00		9.7899E+00
			47.50		9.4970E+00
			48.00		9.2023E+00
			48.50		8.9447E+00
			49.00		8.7040E+00
			49.50		8.4676E+00
			50.00		8.2388E+00
			50.50		8.0596E+00
			51.00		7.9016E+00
			51.50		7.7202E+00
			52.00		7.5234E+00
			52.50		7.3400E+00
			53.00		7.1581E+00
			53.50		6.9763E+00
			54.00		6.8169E+00
			54.50		6.7130E+00
			55.00		6.6035E+00
			55.50		6.4556E+00
			56.00		6.3177E+00
			56.50		6.2221E+00
			57.00		6.1208E+00
			57.50		5.9908E+00
			58.00		5.8631E+00
			58.50		5.7664E+00
			59.00		5.6718E+00
			59.50		5.5492E+00
			60.00		5.3589E+00
		END_DATA
	END_SCAN  1
	BEGIN_SCAN  2
		TASK_NAME=tba PDD Profiles
		PROGRAM=WaterTankScans
		COMMENT=Average
		MEAS_DATE=15-Mar-2022 16:07:33
		LINAC=MRIdian
		MODALITY=X
		ISOCENTER=900.00
		INPLANE_AXIS=Y
		CROSSPLANE_AXIS=X
		DEPTH_AXIS=Depth
		INPLANE_AXIS_DIR=TARGET_GUN
		CROSSPLANE_AXIS_DIR=LEFT_RIGHT
		DEPTH_AXIS_DIR=UP_DOWN
		ENERGY=6.00
		NOMINAL_DMAX=15.00
		SSD=850.00
		SCD=450.00
		WEDGE_ANGLE=0.00
		FIELD_INPLANE=66.00
		FIELD_CROSSPLANE=66.00
		FIELD_TYPE=RECTANGULAR
		GANTRY_UPRIGHT_POSITION=0
		GANTRY_ROTATION=CW
		COLL_ANGLE=0.00
		COLL_OFFSET_INPLANE=0.00
		COLL_OFFSET_CROSSPLANE=0.00
		SCAN_DEVICE=BeamScan
		SCAN_DEVICE_SETUP=BARA_LEFT_RIGHT
		ELECTROMETER=BeamScan
		RANGE_FIELD=LOW
		RANGE_REFERENCE=MEDIUM
		DETECTOR=THIMBLE_CHAMBER
		DETECTOR_RADIUS=2.40
		DETECTOR_NAME=A28MR
		DETECTOR_SN=-
		DETECTOR_CALIBRATION=588000000.00
		DETECTOR_IS_CALIBRATED=0
		DETECTOR_REFERENCE=THIMBLE_CHAMBER
		DETECTOR_REFERENCE_RADIUS=2.75
		DETECTOR_REFERENCE_NAME=A28MR
		DETECTOR_REFERENCE_SN=—
		DETECTOR_REFERENCE_IS_CALIBRATED=0
		DETECTOR_REFERENCE_CALIBRATION=303000000.00
		DETECTOR_HV=300.0
		DETECTOR_REFERENCE_HV=300.0
		DETECTOR_ORIENTATION=HORIZONTAL
		FILTER=FFF
		SCAN_SPEED_PROFILE=10.00
		SCAN_PROF_SPEED_DEP=DEPTH
		SCAN_SPEED_PDD=0.00
		SCAN_PDD_SPEED_DEP=ENERGY
		DETECTOR_TYPE=A28MR
		REF_FIELD_DEPTH=50.00
		REF_FIELD_DEFINED=ISOCENTER
		REF_FIELD_INPLANE=100.00
		REF_FIELD_CROSSPLANE=100.00
		REF_SCAN_POSITIONS=-85.00;-84.00;-83.00;-82.00;-81.00;-80.00;-79.00;-78.00;-77.00;-76.00;-75.00;-74.00;-73.00;-72.00;-71.00;-70.00;-69.00;-68.00;-67.00;-66.00;-65.00;-64.00;-63.00;-62.00;-61.00;-60.00;-59.00;-58.00;-57.00;-56.00;-55.00;-54.00;-53.00;-52.00;-51.00;-50.00;-49.00;-48.00;-47.00;-46.00;-45.00;-44.00;-43.00;-42.00;-41.00;-40.00;-39.00;-38.00;-37.00;-36.00;-35.00;-34.00;-33.00;-32.00;-31.00;-30.00;-29.00;-28.00;-27.00;-26.00;-25.00;-24.00;-23.00;-22.00;-21.00;-20.00;-19.00;-18.00;-17.00;-16.00;-15.00;-14.00;-13.00;-12.00;-11.00;-10.00;-9.00;-8.00;-7.00;-6.00;-5.00;-4.00;-3.00;-2.00;-1.00;0.00;1.00;2.00;3.00;4.00;5.00;6.00;7.00;8.00;9.00;10.00;11.00;12.00;13.00;14.00;15.00;16.00;17.00;18.00;19.00;20.00;21.00;22.00;23.00;24.00;25.00;26.00;27.00;28.00;29.00;30.00;31.00;32.00;33.00;34.00;35.00;36.00;37.00;38.00;39.00;40.00;41.00;42.00;43.00;44.00;45.00;46.00;47.00;48.00;49.00;50.00;51.00;52.00;53.00;54.00;55.00;56.00;57.00;58.00;59.00;60.00;61.00;62.00;63.00;64.00;65.00;66.00;67.00;68.00;69.00;70.00;71.00;72.00;73.00;74.00;75.00;76.00;77.00;78.00;79.00;80.00;81.00;82.00;83.00;84.00;85.00;
		REF_OVERSCAN_FACTOR=1.00
		SCAN_CURVETYPE=CROSSPLANE_PROFILE
		SCAN_DEPTH=55.00
		SCAN_OFFAXIS_INPLANE=0.00
		SCAN_OFFAXIS_CROSSPLANE=0.00
		SCAN_ANGLE=0.00
		SCAN_DIAGONAL=NOT_DIAGONAL
		SCAN_DIRECTION=POSITIVE
		MEAS_MEDIUM=WATER
		MEAS_PRESET=MEAS_CONTINUOUS_REFERENCE_SCAN
		MEAS_TIME=0.100
		MEAS_UNIT=A.U.
		INCLINATION_ANGLE=0.00
		PRESSURE=1013.25
		TEMPERATURE=20.00
		NORM_TEMPERATURE=20.00
		CORRECTION_FACTOR=1.0000
		EXPECTED_MAX_DOSE_RATE=3.00
		EPOM_DEPTH_SHIFT=0.2
		EPOM_MODE=SHIFT_PROTOCOL
		CORRECTIONS=CAX_CORR;INTERPOLATED_CORR;SYMMETRY_CORR;ADD_CURVES_CORR;
		BEGIN_DATA
			-64.00		2.6757E+00
			-63.50		2.7285E+00
			-63.00		2.7815E+00
			-62.50		2.8384E+00
			-62.00		2.8923E+00
			-61.50		2.9430E+00
			-61.00		2.9967E+00
			-60.50		3.0590E+00
			-60.00		8.6712E+00
			-59.50		8.7859E+00
			-59.00		8.9450E+00
			-58.50		9.1437E+00
			-58.00		9.3389E+00
			-57.50		9.4842E+00
			-57.00		9.6444E+00
			-56.50		9.8230E+00
			-56.00		10.090E+00
			-55.50		10.296E+00
			-55.00		10.552E+00
			-54.50		10.775E+00
			-54.00		11.011E+00
			-53.50		11.271E+00
			-53.00		11.562E+00
			-52.50		11.811E+00
			-52.00		12.089E+00
			-51.50		12.379E+00
			-51.00		12.714E+00
			-50.50		13.055E+00
			-50.00		13.428E+00
			-49.50		13.787E+00
			-49.00		14.129E+00
			-48.50		14.536E+00
			-48.00		14.903E+00
			-47.50		15.384E+00
			-47.00		15.913E+00
			-46.50		16.424E+00
			-46.00		16.991E+00
			-45.50		17.562E+00
			-45.00		18.156E+00
			-44.50		18.831E+00
			-44.00		19.549E+00
			-43.50		20.292E+00
			-43.00		21.150E+00
			-42.50		22.107E+00
			-42.00		23.196E+00
			-41.50		24.444E+00
			-41.00		25.816E+00
			-40.50		27.512E+00
			-40.00		29.575E+00
			-39.50		32.195E+00
			-39.00		35.409E+00
			-38.50		39.721E+00
			-38.00		45.207E+00
			-37.50		52.471E+00
			-37.00		61.377E+00
			-36.50		72.771E+00
			-36.00		86.121E+00
			-35.50		101.75E+00
			-35.00		118.76E+00
			-34.50		137.47E+00
			-34.00		156.91E+00
			-33.50		177.43E+00
			-33.00		198.12E+00
			-32.50		218.39E+00
			-32.00		238.43E+00
			-31.50		257.16E+00
			-31.00		275.17E+00
			-30.50		290.76E+00
			-30.00		305.36E+00
			-29.50		316.75E+00
			-29.00		326.96E+00
			-28.50		334.59E+00
			-28.00		341.37E+00
			-27.50		346.50E+00
			-27.00		350.89E+00
			-26.50		354.45E+00
			-26.00		357.52E+00
			-25.50		360.00E+00
			-25.00		362.26E+00
			-24.50		364.26E+00
			-24.00		365.93E+00
			-23.50		367.44E+00
			-23.00		368.81E+00
			-22.50		369.98E+00
			-22.00		371.23E+00
			-21.50		372.49E+00
			-21.00		373.64E+00
			-20.50		374.56E+00
			-20.00		375.48E+00
			-19.50		376.28E+00
			-19.00		377.03E+00
			-18.50		377.95E+00
			-18.00		378.84E+00
			-17.50		379.54E+00
			-17.00		380.18E+00
			-16.50		380.81E+00
			-16.00		381.34E+00
			-15.50		381.85E+00
			-15.00		382.43E+00
			-14.50		383.13E+00
			-14.00		383.81E+00
			-13.50		384.37E+00
			-13.00		384.90E+00
			-12.50		385.32E+00
			-12.00		385.72E+00
			-11.50		386.16E+00
			-11.00		386.65E+00
			-10.50		387.03E+00
			-10.00		387.42E+00
			-9.50		387.84E+00
			-9.00		388.20E+00
			-8.50		388.59E+00
			-8.00		388.96E+00
			-7.50		389.28E+00
			-7.00		389.51E+00
			-6.50		389.71E+00
			-6.00		389.93E+00
			-5.50		390.11E+00
			-5.00		390.30E+00
			-4.50		390.58E+00
			-4.00		390.78E+00
			-3.50		390.94E+00
			-3.00		391.17E+00
			-2.50		391.31E+00
			-2.00		391.47E+00
			-1.50		391.45E+00
			-1.00		391.48E+00
			-0.50		391.59E+00
			0.00		391.66E+00
			0.50		391.59E+00
			1.00		391.48E+00
			1.50		391.45E+00
			2.00		391.47E+00
			2.50		391.31E+00
			3.00		391.17E+00
			3.50		390.94E+00
			4.00		390.78E+00
			4.50		390.58E+00
			5.00		390.30E+00
			5.50		390.11E+00
			6.00		389.93E+00
			6.50		389.71E+00
			7.00		389.51E+00
			7.50		389.28E+00
			8.00		388.96E+00
			8.50		388.59E+00
			9.00		388.20E+00
			9.50		387.84E+00
			10.00		387.42E+00
			10.50		387.03E+00
			11.00		386.65E+00
			11.50		386.16E+00
			12.00		385.72E+00
			12.50		385.32E+00
			13.00		384.90E+00
			13.50		384.37E+00
			14.00		383.81E+00
			14.50		383.13E+00
			15.00		382.43E+00
			15.50		381.85E+00
			16.00		381.34E+00
			16.50		380.81E+00
			17.00		380.18E+00
			17.50		379.54E+00
			18.00		378.84E+00
			18.50		377.95E+00
			19.00		377.03E+00
			19.50		376.28E+00
			20.00		375.48E+00
			20.50		374.56E+00
			21.00		373.64E+00
			21.50		372.49E+00
			22.00		371.23E+00
			22.50		369.98E+00
			23.00		368.81E+00
			23.50		367.44E+00
			24.00		365.93E+00
			24.50		364.26E+00
			25.00		362.26E+00
			25.50		360.00E+00
			26.00		357.52E+00
			26.50		354.45E+00
			27.00		350.89E+00
			27.50		346.50E+00
			28.00		341.37E+00
			28.50		334.59E+00
			29.00		326.96E+00
			29.50		316.75E+00
			30.00		305.36E+00
			30.50		290.76E+00
			31.00		275.17E+00
			31.50		257.16E+00
			32.00		238.43E+00
			32.50		218.39E+00
			33.00		198.12E+00
			33.50		177.43E+00
			34.00		156.91E+00
			34.50		137.47E+00
			35.00		118.76E+00
			35.50		101.75E+00
			36.00		86.121E+00
			36.50		72.771E+00
			37.00		61.377E+00
			37.50		52.471E+00
			38.00		45.207E+00
			38.50		39.721E+00
			39.00		35.409E+00
			39.50		32.195E+00
			40.00		29.575E+00
			40.50		27.512E+00
			41.00		25.816E+00
			41.50		24.444E+00
			42.00		23.196E+00
			42.50		22.107E+00
			43.00		21.150E+00
			43.50		20.292E+00
			44.00		19.549E+00
			44.50		18.831E+00
			45.00		18.156E+00
			45.50		17.562E+00
			46.00		16.991E+00
			46.50		16.424E+00
			47.00		15.913E+00
			47.50		15.384E+00
			48.00		14.903E+00
			48.50		14.536E+00
			49.00		14.129E+00
			49.50		13.787E+00
			50.00		13.428E+00
			50.50		13.055E+00
			51.00		12.714E+00
			51.50		12.379E+00
			52.00		12.089E+00
			52.50		11.811E+00
			53.00		11.562E+00
			53.50		11.271E+00
			54.00		11.011E+00
			54.50		10.775E+00
			55.00		10.552E+00
			55.50		10.296E+00
			56.00		10.090E+00
			56.50		9.8230E+00
			57.00		9.6444E+00
			57.50		9.4842E+00
			58.00		9.3389E+00
			58.50		9.1437E+00
			59.00		8.9450E+00
			59.50		8.7859E+00
			60.00		8.6712E+00
			60.50		3.0590E+00
			61.00		2.9967E+00
			61.50		2.9430E+00
			62.00		2.8923E+00
			62.50		2.8384E+00
			63.00		2.7815E+00
			63.50		2.7285E+00
			64.00		2.6757E+00
		END_DATA
	END_SCAN  2
	BEGIN_SCAN  3
		TASK_NAME=tba PDD Profiles
		PROGRAM=WaterTankScans
		COMMENT=Average
		MEAS_DATE=15-Mar-2022 16:08:28
		LINAC=MRIdian
		MODALITY=X
		ISOCENTER=900.00
		INPLANE_AXIS=Y
		CROSSPLANE_AXIS=X
		DEPTH_AXIS=Depth
		INPLANE_AXIS_DIR=TARGET_GUN
		CROSSPLANE_AXIS_DIR=LEFT_RIGHT
		DEPTH_AXIS_DIR=UP_DOWN
		ENERGY=6.00
		NOMINAL_DMAX=15.00
		SSD=850.00
		SCD=450.00
		WEDGE_ANGLE=0.00
		FIELD_INPLANE=66.00
		FIELD_CROSSPLANE=66.00
		FIELD_TYPE=RECTANGULAR
		GANTRY_UPRIGHT_POSITION=0
		GANTRY_ROTATION=CW
		COLL_ANGLE=0.00
		COLL_OFFSET_INPLANE=0.00
		COLL_OFFSET_CROSSPLANE=0.00
		SCAN_DEVICE=BeamScan
		SCAN_DEVICE_SETUP=BARA_LEFT_RIGHT
		ELECTROMETER=BeamScan
		RANGE_FIELD=LOW
		RANGE_REFERENCE=MEDIUM
		DETECTOR=THIMBLE_CHAMBER
		DETECTOR_RADIUS=2.40
		DETECTOR_NAME=A28MR
		DETECTOR_SN=-
		DETECTOR_CALIBRATION=588000000.00
		DETECTOR_IS_CALIBRATED=0
		DETECTOR_REFERENCE=THIMBLE_CHAMBER
		DETECTOR_REFERENCE_RADIUS=2.75
		DETECTOR_REFERENCE_NAME=A28MR
		DETECTOR_REFERENCE_SN=—
		DETECTOR_REFERENCE_IS_CALIBRATED=0
		DETECTOR_REFERENCE_CALIBRATION=303000000.00
		DETECTOR_HV=300.0
		DETECTOR_REFERENCE_HV=300.0
		DETECTOR_ORIENTATION=HORIZONTAL
		FILTER=FFF
		SCAN_SPEED_PROFILE=10.00
		SCAN_PROF_SPEED_DEP=DEPTH
		SCAN_SPEED_PDD=0.00
		SCAN_PDD_SPEED_DEP=ENERGY
		DETECTOR_TYPE=A28MR
		REF_FIELD_DEPTH=50.00
		REF_FIELD_DEFINED=ISOCENTER
		REF_FIELD_INPLANE=100.00
		REF_FIELD_CROSSPLANE=100.00
		REF_SCAN_POSITIONS=-85.00;-84.00;-83.00;-82.00;-81.00;-80.00;-79.00;-78.00;-77.00;-76.00;-75.00;-74.00;-73.00;-72.00;-71.00;-70.00;-69.00;-68.00;-67.00;-66.00;-65.00;-64.00;-63.00;-62.00;-61.00;-60.00;-59.00;-58.00;-57.00;-56.00;-55.00;-54.00;-53.00;-52.00;-51.00;-50.00;-49.00;-48.00;-47.00;-46.00;-45.00;-44.00;-43.00;-42.00;-41.00;-40.00;-39.00;-38.00;-37.00;-36.00;-35.00;-34.00;-33.00;-32.00;-31.00;-30.00;-29.00;-28.00;-27.00;-26.00;-25.00;-24.00;-23.00;-22.00;-21.00;-20.00;-19.00;-18.00;-17.00;-16.00;-15.00;-14.00;-13.00;-12.00;-11.00;-10.00;-9.00;-8.00;-7.00;-6.00;-5.00;-4.00;-3.00;-2.00;-1.00;0.00;1.00;2.00;3.00;4.00;5.00;6.00;7.00;8.00;9.00;10.00;11.00;12.00;13.00;14.00;15.00;16.00;17.00;18.00;19.00;20.00;21.00;22.00;23.00;24.00;25.00;26.00;27.00;28.00;29.00;30.00;31.00;32.00;33.00;34.00;35.00;36.00;37.00;38.00;39.00;40.00;41.00;42.00;43.00;44.00;45.00;46.00;47.00;48.00;49.00;50.00;51.00;52.00;53.00;54.00;55.00;56.00;57.00;58.00;59.00;60.00;61.00;62.00;63.00;64.00;65.00;66.00;67.00;68.00;69.00;70.00;71.00;72.00;73.00;74.00;75.00;76.00;77.00;78.00;79.00;80.00;81.00;82.00;83.00;84.00;85.00;
		REF_OVERSCAN_FACTOR=1.00
		SCAN_CURVETYPE=CROSSPLANE_PROFILE
		SCAN_DEPTH=100.00
		SCAN_OFFAXIS_INPLANE=0.00
		SCAN_OFFAXIS_CROSSPLANE=0.00
		SCAN_ANGLE=0.00
		SCAN_DIAGONAL=NOT_DIAGONAL
		SCAN_DIRECTION=POSITIVE
		MEAS_MEDIUM=WATER
		MEAS_PRESET=MEAS_CONTINUOUS_REFERENCE_SCAN
		MEAS_TIME=0.100
		MEAS_UNIT=A.U.
		INCLINATION_ANGLE=0.00
		PRESSURE=1013.25
		TEMPERATURE=20.00
		NORM_TEMPERATURE=20.00
		CORRECTION_FACTOR=1.0000
		EXPECTED_MAX_DOSE_RATE=3.00
		EPOM_DEPTH_SHIFT=0.2
		EPOM_MODE=SHIFT_PROTOCOL
		CORRECTIONS=CAX_CORR;INTERPOLATED_CORR;SYMMETRY_CORR;ADD_CURVES_CORR;
		BEGIN_DATA
			-64.00		3.5008E+00
			-63.50		3.5115E+00
			-63.00		3.5758E+00
			-62.50		3.6404E+00
			-62.00		3.7036E+00
			-61.50		3.7679E+00
			-61.00		3.8278E+00
			-60.50		3.8934E+00
			-60.00		11.027E+00
			-59.50		11.155E+00
			-59.00		11.319E+00
			-58.50		11.529E+00
			-58.00		11.748E+00
			-57.50		12.001E+00
			-57.00		12.267E+00
			-56.50		12.499E+00
			-56.00		12.754E+00
			-55.50		12.965E+00
			-55.00		13.185E+00
			-54.50		13.493E+00
			-54.00		13.752E+00
			-53.50		14.096E+00
			-53.00		14.414E+00
			-52.50		14.708E+00
			-52.00		15.028E+00
			-51.50		15.336E+00
			-51.00		15.665E+00
			-50.50		16.047E+00
			-50.00		16.406E+00
			-49.50		16.862E+00
			-49.00		17.262E+00
			-48.50		17.708E+00
			-48.00		18.149E+00
			-47.50		18.660E+00
			-47.00		19.180E+00
			-46.50		19.736E+00
			-46.00		20.334E+00
			-45.50		20.925E+00
			-45.00		21.614E+00
			-44.50		22.334E+00
			-44.00		23.152E+00
			-43.50		24.088E+00
			-43.00		25.145E+00
			-42.50		26.403E+00
			-42.00		27.896E+00
			-41.50		29.627E+00
			-41.00		31.825E+00
			-40.50		34.629E+00
			-40.00		38.129E+00
			-39.50		42.613E+00
			-39.00		48.370E+00
			-38.50		55.413E+00
			-38.00		63.983E+00
			-37.50		73.972E+00
			-37.00		85.266E+00
			-36.50		97.540E+00
			-36.00		110.82E+00
			-35.50		124.69E+00
			-35.00		138.93E+00
			-34.50		153.37E+00
			-34.00		167.64E+00
			-33.50		181.41E+00
			-33.00		194.44E+00
			-32.50		206.61E+00
			-32.00		217.57E+00
			-31.50		227.04E+00
			-31.00		235.24E+00
			-30.50		241.97E+00
			-30.00		247.72E+00
			-29.50		252.29E+00
			-29.00		256.18E+00
			-28.50		259.35E+00
			-28.00		262.15E+00
			-27.50		264.33E+00
			-27.00		266.12E+00
			-26.50		267.82E+00
			-26.00		269.35E+00
			-25.50		270.61E+00
			-25.00		271.78E+00
			-24.50		272.82E+00
			-24.00		273.83E+00
			-23.50		274.83E+00
			-23.00		275.72E+00
			-22.50		276.51E+00
			-22.00		277.32E+00
			-21.50		278.13E+00
			-21.00		278.86E+00
			-20.50		279.53E+00
			-20.00		280.24E+00
			-19.50		280.90E+00
			-19.00		281.47E+00
			-18.50		281.94E+00
			-18.00		282.52E+00
			-17.50		283.15E+00
			-17.00		283.66E+00
			-16.50		284.05E+00
			-16.00		284.45E+00
			-15.50		285.02E+00
			-15.00		285.60E+00
			-14.50		285.98E+00
			-14.00		286.32E+00
			-13.50		286.72E+00
			-13.00		287.17E+00
			-12.50		287.44E+00
			-12.00		287.69E+00
			-11.50		288.08E+00
			-11.00		288.54E+00
			-10.50		288.83E+00
			-10.00		289.09E+00
			-9.50		289.41E+00
			-9.00		289.72E+00
			-8.50		289.92E+00
			-8.00		290.13E+00
			-7.50		290.28E+00
			-7.00		290.55E+00
			-6.50		290.84E+00
			-6.00		291.11E+00
			-5.50		291.29E+00
			-5.00		291.37E+00
			-4.50		291.54E+00
			-4.00		291.69E+00
			-3.50		291.78E+00
			-3.00		291.90E+00
			-2.50		291.96E+00
			-2.00		291.95E+00
			-1.50		292.02E+00
			-1.00		292.12E+00
			-0.50		292.17E+00
			0.00		292.19E+00
			0.50		292.17E+00
			1.00		292.12E+00
			1.50		292.02E+00
			2.00		291.95E+00
			2.50		291.96E+00
			3.00		291.90E+00
			3.50		291.78E+00
			4.00		291.69E+00
			4.50		291.54E+00
			5.00		291.37E+00
			5.50		291.29E+00
			6.00		291.11E+00
			6.50		290.84E+00
			7.00		290.55E+00
			7.50		290.28E+00
			8.00		290.13E+00
			8.50		289.92E+00
			9.00		289.72E+00
			9.50		289.41E+00
			10.00		289.09E+00
			10.50		288.83E+00
			11.00		288.54E+00
			11.50		288.08E+00
			12.00		287.69E+00
			12.50		287.44E+00
			13.00		287.17E+00
			13.50		286.72E+00
			14.00		286.32E+00
			14.50		285.98E+00
			15.00		285.60E+00
			15.50		285.02E+00
			16.00		284.45E+00
			16.50		284.05E+00
			17.00		283.66E+00
			17.50		283.15E+00
			18.00		282.52E+00
			18.50		281.94E+00
			19.00		281.47E+00
			19.50		280.90E+00
			20.00		280.24E+00
			20.50		279.53E+00
			21.00		278.86E+00
			21.50		278.13E+00
			22.00		277.32E+00
			22.50		276.51E+00
			23.00		275.72E+00
			23.50		274.83E+00
			24.00		273.83E+00
			24.50		272.82E+00
			25.00		271.78E+00
			25.50		270.61E+00
			26.00		269.35E+00
			26.50		267.82E+00
			27.00		266.12E+00
			27.50		264.33E+00
			28.00		262.15E+00
			28.50		259.35E+00
			29.00		256.18E+00
			29.50		252.29E+00
			30.00		247.72E+00
			30.50		241.97E+00
			31.00		235.24E+00
			31.50		227.04E+00
			32.00		217.57E+00
			32.50		206.61E+00
			33.00		194.44E+00
			33.50		181.41E+00
			34.00		167.64E+00
			34.50		153.37E+00
			35.00		138.93E+00
			35.50		124.69E+00
			36.00		110.82E+00
			36.50		97.540E+00
			37.00		85.266E+00
			37.50		73.972E+00
			38.00		63.983E+00
			38.50		55.413E+00
			39.00		48.370E+00
			39.50		42.613E+00
			40.00		38.129E+00
			40.50		34.629E+00
			41.00		31.825E+00
			41.50		29.627E+00
			42.00		27.896E+00
			42.50		26.403E+00
			43.00		25.145E+00
			43.50		24.088E+00
			44.00		23.152E+00
			44.50		22.334E+00
			45.00		21.614E+00
			45.50		20.925E+00
			46.00		20.334E+00
			46.50		19.736E+00
			47.00		19.180E+00
			47.50		18.660E+00
			48.00		18.149E+00
			48.50		17.708E+00
			49.00		17.262E+00
			49.50		16.862E+00
			50.00		16.406E+00
			50.50		16.047E+00
			51.00		15.665E+00
			51.50		15.336E+00
			52.00		15.028E+00
			52.50		14.708E+00
			53.00		14.414E+00
			53.50		14.096E+00
			54.00		13.752E+00
			54.50		13.493E+00
			55.00		13.185E+00
			55.50		12.965E+00
			56.00		12.754E+00
			56.50		12.499E+00
			57.00		12.267E+00
			57.50		12.001E+00
			58.00		11.748E+00
			58.50		11.529E+00
			59.00		11.319E+00
			59.50		11.155E+00
			60.00		11.027E+00
			60.50		3.8934E+00
			61.00		3.8278E+00
			61.50		3.7679E+00
			62.00		3.7036E+00
			62.50		3.6404E+00
			63.00		3.5758E+00
			63.50		3.5115E+00
			64.00		3.5008E+00
		END_DATA
	END_SCAN  3
	BEGIN_SCAN  4
		TASK_NAME=tba PDD Profiles
		PROGRAM=WaterTankScans
		COMMENT=Average
		MEAS_DATE=15-Mar-2022 16:09:07
		LINAC=MRIdian
		MODALITY=X
		ISOCENTER=900.00
		INPLANE_AXIS=Y
		CROSSPLANE_AXIS=X
		DEPTH_AXIS=Depth
		INPLANE_AXIS_DIR=TARGET_GUN
		CROSSPLANE_AXIS_DIR=LEFT_RIGHT
		DEPTH_AXIS_DIR=UP_DOWN
		ENERGY=6.00
		NOMINAL_DMAX=15.00
		SSD=850.00
		SCD=450.00
		WEDGE_ANGLE=0.00
		FIELD_INPLANE=66.00
		FIELD_CROSSPLANE=66.00
		FIELD_TYPE=RECTANGULAR
		GANTRY_UPRIGHT_POSITION=0
		GANTRY_ROTATION=CW
		COLL_ANGLE=0.00
		COLL_OFFSET_INPLANE=0.00
		COLL_OFFSET_CROSSPLANE=0.00
		SCAN_DEVICE=BeamScan
		SCAN_DEVICE_SETUP=BARA_LEFT_RIGHT
		ELECTROMETER=BeamScan
		RANGE_FIELD=LOW
		RANGE_REFERENCE=MEDIUM
		DETECTOR=THIMBLE_CHAMBER
		DETECTOR_RADIUS=2.40
		DETECTOR_NAME=A28MR
		DETECTOR_SN=-
		DETECTOR_CALIBRATION=588000000.00
		DETECTOR_IS_CALIBRATED=0
		DETECTOR_REFERENCE=THIMBLE_CHAMBER
		DETECTOR_REFERENCE_RADIUS=2.75
		DETECTOR_REFERENCE_NAME=A28MR
		DETECTOR_REFERENCE_SN=—
		DETECTOR_REFERENCE_IS_CALIBRATED=0
		DETECTOR_REFERENCE_CALIBRATION=303000000.00
		DETECTOR_HV=300.0
		DETECTOR_REFERENCE_HV=300.0
		DETECTOR_ORIENTATION=HORIZONTAL
		FILTER=FFF
		SCAN_SPEED_PROFILE=10.00
		SCAN_PROF_SPEED_DEP=DEPTH
		SCAN_SPEED_PDD=0.00
		SCAN_PDD_SPEED_DEP=ENERGY
		DETECTOR_TYPE=A28MR
		REF_FIELD_DEPTH=50.00
		REF_FIELD_DEFINED=ISOCENTER
		REF_FIELD_INPLANE=100.00
		REF_FIELD_CROSSPLANE=100.00
		REF_SCAN_POSITIONS=-85.00;-84.00;-83.00;-82.00;-81.00;-80.00;-79.00;-78.00;-77.00;-76.00;-75.00;-74.00;-73.00;-72.00;-71.00;-70.00;-69.00;-68.00;-67.00;-66.00;-65.00;-64.00;-63.00;-62.00;-61.00;-60.00;-59.00;-58.00;-57.00;-56.00;-55.00;-54.00;-53.00;-52.00;-51.00;-50.00;-49.00;-48.00;-47.00;-46.00;-45.00;-44.00;-43.00;-42.00;-41.00;-40.00;-39.00;-38.00;-37.00;-36.00;-35.00;-34.00;-33.00;-32.00;-31.00;-30.00;-29.00;-28.00;-27.00;-26.00;-25.00;-24.00;-23.00;-22.00;-21.00;-20.00;-19.00;-18.00;-17.00;-16.00;-15.00;-14.00;-13.00;-12.00;-11.00;-10.00;-9.00;-8.00;-7.00;-6.00;-5.00;-4.00;-3.00;-2.00;-1.00;0.00;1.00;2.00;3.00;4.00;5.00;6.00;7.00;8.00;9.00;10.00;11.00;12.00;13.00;14.00;15.00;16.00;17.00;18.00;19.00;20.00;21.00;22.00;23.00;24.00;25.00;26.00;27.00;28.00;29.00;30.00;31.00;32.00;33.00;34.00;35.00;36.00;37.00;38.00;39.00;40.00;41.00;42.00;43.00;44.00;45.00;46.00;47.00;48.00;49.00;50.00;51.00;52.00;53.00;54.00;55.00;56.00;57.00;58.00;59.00;60.00;61.00;62.00;63.00;64.00;65.00;66.00;67.00;68.00;69.00;70.00;71.00;72.00;73.00;74.00;75.00;76.00;77.00;78.00;79.00;80.00;81.00;82.00;83.00;84.00;85.00;
		REF_OVERSCAN_FACTOR=1.00
		SCAN_CURVETYPE=CROSSPLANE_PROFILE
		SCAN_DEPTH=150.00
		SCAN_OFFAXIS_INPLANE=0.00
		SCAN_OFFAXIS_CROSSPLANE=0.00
		SCAN_ANGLE=0.00
		SCAN_DIAGONAL=NOT_DIAGONAL
		SCAN_DIRECTION=POSITIVE
		MEAS_MEDIUM=WATER
		MEAS_PRESET=MEAS_CONTINUOUS_REFERENCE_SCAN
		MEAS_TIME=0.100
		MEAS_UNIT=A.U.
		INCLINATION_ANGLE=0.00
		PRESSURE=1013.25
		TEMPERATURE=20.00
		NORM_TEMPERATURE=20.00
		CORRECTION_FACTOR=1.0000
		EXPECTED_MAX_DOSE_RATE=3.00
		EPOM_DEPTH_SHIFT=0.2
		EPOM_MODE=SHIFT_PROTOCOL
		CORRECTIONS=SMOOTHED_CORR;CAX_CORR;INTERPOLATED_CORR;SYMMETRY_CORR;ADD_CURVES_CORR;
		BEGIN_DATA
			-64.50		6.9853E+00
			-64.00		10.680E+00
			-63.50		10.799E+00
			-63.00		10.965E+00
