BEGIN_SCAN_DATA
	FORMAT=CC-Export V1.9                  
	FILE_CREATION_DATE=15-Mar-2022 16:23:49
	LAST_MODIFIED=15-Mar-2022 16:23:49
	BEGIN_SCAN  1
		TASK_NAME=tba PDD Profiles
		PROGRAM=WaterTankScans
		COMMENT=Average
		MEAS_DATE=15-Mar-2022 16:20:23
		LINAC=MRIdian
		MODALITY=X
		ISOCENTER=900.00
		INPLANE_AXIS=Y
		CROSSPLANE_AXIS=X
		DEPTH_AXIS=Depth
		INPLANE_AXIS_DIR=TARGET_GUN
		CROSSPLANE_AXIS_DIR=LEFT_RIGHT
		DEPTH_AXIS_DIR=UP_DOWN
		ENERGY=6.00
		NOMINAL_DMAX=15.00
		SSD=850.00
		SCD=450.00
		WEDGE_ANGLE=0.00
		FIELD_INPLANE=149.00
		FIELD_CROSSPLANE=149.00
		FIELD_TYPE=RECTANGULAR
		GANTRY_UPRIGHT_POSITION=0
		GANTRY_ROTATION=CW
		COLL_ANGLE=0.00
		COLL_OFFSET_INPLANE=0.00
		COLL_OFFSET_CROSSPLANE=0.00
		SCAN_DEVICE=BeamScan
		SCAN_DEVICE_SETUP=BARA_LEFT_RIGHT
		ELECTROMETER=BeamScan
		RANGE_FIELD=LOW
		RANGE_REFERENCE=MEDIUM
		DETECTOR=THIMBLE_CHAMBER
		DETECTOR_RADIUS=2.40
		DETECTOR_NAME=A28MR
		DETECTOR_SN=-
		DETECTOR_CALIBRATION=588000000.00
		DETECTOR_IS_CALIBRATED=0
		DETECTOR_REFERENCE=THIMBLE_CHAMBER
		DETECTOR_REFERENCE_RADIUS=2.75
		DETECTOR_REFERENCE_NAME=A28MR
		DETECTOR_REFERENCE_SN=—
		DETECTOR_REFERENCE_IS_CALIBRATED=0
		DETECTOR_REFERENCE_CALIBRATION=303000000.00
		DETECTOR_HV=300.0
		DETECTOR_REFERENCE_HV=300.0
		DETECTOR_ORIENTATION=HORIZONTAL
		FILTER=FFF
		SCAN_SPEED_PROFILE=10.00
		SCAN_PROF_SPEED_DEP=DEPTH
		SCAN_SPEED_PDD=0.00
		SCAN_PDD_SPEED_DEP=ENERGY
		DETECTOR_TYPE=A28MR
		REF_FIELD_DEPTH=50.00
		REF_FIELD_DEFINED=ISOCENTER
		REF_FIELD_INPLANE=100.00
		REF_FIELD_CROSSPLANE=100.00
		REF_SCAN_POSITIONS=-85.00;-84.00;-83.00;-82.00;-81.00;-80.00;-79.00;-78.00;-77.00;-76.00;-75.00;-74.00;-73.00;-72.00;-71.00;-70.00;-69.00;-68.00;-67.00;-66.00;-65.00;-64.00;-63.00;-62.00;-61.00;-60.00;-59.00;-58.00;-57.00;-56.00;-55.00;-54.00;-53.00;-52.00;-51.00;-50.00;-49.00;-48.00;-47.00;-46.00;-45.00;-44.00;-43.00;-42.00;-41.00;-40.00;-39.00;-38.00;-37.00;-36.00;-35.00;-34.00;-33.00;-32.00;-31.00;-30.00;-29.00;-28.00;-27.00;-26.00;-25.00;-24.00;-23.00;-22.00;-21.00;-20.00;-19.00;-18.00;-17.00;-16.00;-15.00;-14.00;-13.00;-12.00;-11.00;-10.00;-9.00;-8.00;-7.00;-6.00;-5.00;-4.00;-3.00;-2.00;-1.00;0.00;1.00;2.00;3.00;4.00;5.00;6.00;7.00;8.00;9.00;10.00;11.00;12.00;13.00;14.00;15.00;16.00;17.00;18.00;19.00;20.00;21.00;22.00;23.00;24.00;25.00;26.00;27.00;28.00;29.00;30.00;31.00;32.00;33.00;34.00;35.00;36.00;37.00;38.00;39.00;40.00;41.00;42.00;43.00;44.00;45.00;46.00;47.00;48.00;49.00;50.00;51.00;52.00;53.00;54.00;55.00;56.00;57.00;58.00;59.00;60.00;61.00;62.00;63.00;64.00;65.00;66.00;67.00;68.00;69.00;70.00;71.00;72.00;73.00;74.00;75.00;76.00;77.00;78.00;79.00;80.00;81.00;82.00;83.00;84.00;85.00;
		REF_OVERSCAN_FACTOR=1.00
		SCAN_CURVETYPE=CROSSPLANE_PROFILE
		SCAN_DEPTH=20.00
		SCAN_OFFAXIS_INPLANE=0.00
		SCAN_OFFAXIS_CROSSPLANE=0.00
		SCAN_ANGLE=0.00
		SCAN_DIAGONAL=NOT_DIAGONAL
		SCAN_DIRECTION=POSITIVE
		MEAS_MEDIUM=WATER
		MEAS_PRESET=MEAS_CONTINUOUS_REFERENCE_SCAN
		MEAS_TIME=0.100
		MEAS_UNIT=A.U.
		INCLINATION_ANGLE=0.00
		PRESSURE=1013.25
		TEMPERATURE=20.00
		NORM_TEMPERATURE=20.00
		CORRECTION_FACTOR=1.0000
		EXPECTED_MAX_DOSE_RATE=3.00
		EPOM_DEPTH_SHIFT=0.2
		EPOM_MODE=SHIFT_PROTOCOL
		CORRECTIONS=CAX_CORR;INTERPOLATED_CORR;SYMMETRY_CORR;ADD_CURVES_CORR;
		BEGIN_DATA
			-120.00		5.0189E+00
			-119.50		5.1079E+00
			-119.00		5.1699E+00
			-118.50		5.2217E+00
			-118.00		5.2597E+00
			-117.50		5.2923E+00
			-117.00		5.3334E+00
			-116.50		5.3803E+00
			-116.00		5.4288E+00
			-115.50		5.4967E+00
			-115.00		5.5623E+00
			-114.50		5.6013E+00
			-114.00		5.6438E+00
			-113.50		5.7061E+00
			-113.00		5.7693E+00
			-112.50		5.8392E+00
			-112.00		5.9059E+00
			-111.50		5.9580E+00
			-111.00		6.0155E+00
			-110.50		6.0898E+00
			-110.00		9.2206E+00
			-109.50		9.2896E+00
			-109.00		9.3715E+00
			-108.50		9.4757E+00
			-108.00		9.5748E+00
			-107.50		9.6593E+00
			-107.00		9.7511E+00
			-106.50		9.8682E+00
			-106.00		9.9892E+00
			-105.50		10.103E+00
			-105.00		10.218E+00
			-104.50		10.342E+00
			-104.00		10.463E+00
			-103.50		10.581E+00
			-103.00		10.705E+00
			-102.50		10.846E+00
			-102.00		10.990E+00
			-101.50		11.126E+00
			-101.00		11.256E+00
			-100.50		11.380E+00
			-100.00		11.507E+00
			-99.50		11.648E+00
			-99.00		11.804E+00
			-98.50		12.002E+00
			-98.00		12.185E+00
			-97.50		12.332E+00
			-97.00		12.493E+00
			-96.50		12.662E+00
			-96.00		12.829E+00
			-95.50		13.033E+00
			-95.00		13.240E+00
			-94.50		13.423E+00
			-94.00		13.605E+00
			-93.50		13.780E+00
			-93.00		13.951E+00
			-92.50		14.181E+00
			-92.00		14.441E+00
			-91.50		14.704E+00
			-91.00		14.958E+00
			-90.50		15.195E+00
			-90.00		15.437E+00
			-89.50		15.717E+00
			-89.00		16.000E+00
			-88.50		16.291E+00
			-88.00		16.595E+00
			-87.50		16.906E+00
			-87.00		17.222E+00
			-86.50		17.606E+00
			-86.00		18.013E+00
			-85.50		18.432E+00
			-85.00		18.856E+00
			-84.50		19.318E+00
			-84.00		19.795E+00
			-83.50		20.328E+00
			-83.00		20.896E+00
			-82.50		21.569E+00
			-82.00		22.278E+00
			-81.50		23.026E+00
			-81.00		23.807E+00
			-80.50		24.818E+00
			-80.00		25.937E+00
			-79.50		27.302E+00
			-79.00		28.827E+00
			-78.50		30.887E+00
			-78.00		33.264E+00
			-77.50		36.595E+00
			-77.00		40.553E+00
			-76.50		46.461E+00
			-76.00		53.494E+00
			-75.50		63.764E+00
			-75.00		75.303E+00
			-74.50		90.153E+00
			-74.00		106.38E+00
			-73.50		125.18E+00
			-73.00		144.86E+00
			-72.50		165.85E+00
			-72.00		187.04E+00
			-71.50		208.33E+00
			-71.00		229.46E+00
			-70.50		249.37E+00
			-70.00		268.55E+00
			-69.50		285.41E+00
			-69.00		301.02E+00
			-68.50		313.23E+00
			-68.00		324.24E+00
			-67.50		332.42E+00
			-67.00		339.49E+00
			-66.50		344.64E+00
			-66.00		349.20E+00
			-65.50		352.90E+00
			-65.00		356.22E+00
			-64.50		358.74E+00
			-64.00		361.06E+00
			-63.50		363.15E+00
			-63.00		365.13E+00
			-62.50		366.95E+00
			-62.00		368.76E+00
			-61.50		370.32E+00
			-61.00		371.69E+00
			-60.50		372.99E+00
			-60.00		374.34E+00
			-59.50		375.59E+00
			-59.00		376.83E+00
			-58.50		378.13E+00
			-58.00		379.35E+00
			-57.50		380.54E+00
			-57.00		381.73E+00
			-56.50		382.67E+00
			-56.00		383.61E+00
			-55.50		384.89E+00
			-55.00		386.13E+00
			-54.50		386.91E+00
			-54.00		387.68E+00
			-53.50		388.81E+00
			-53.00		389.95E+00
			-52.50		390.99E+00
			-52.00		392.04E+00
			-51.50		393.16E+00
			-51.00		394.27E+00
			-50.50		395.26E+00
			-50.00		396.21E+00
			-49.50		397.20E+00
			-49.00		398.17E+00
			-48.50		398.96E+00
			-48.00		399.72E+00
			-47.50		400.62E+00
			-47.00		401.60E+00
			-46.50		402.82E+00
			-46.00		403.99E+00
			-45.50		404.81E+00
			-45.00		405.59E+00
			-44.50		406.43E+00
			-44.00		407.29E+00
			-43.50		408.25E+00
			-43.00		409.25E+00
			-42.50		410.23E+00
			-42.00		411.10E+00
			-41.50		411.84E+00
			-41.00		412.64E+00
			-40.50		413.62E+00
			-40.00		414.68E+00
			-39.50		415.66E+00
			-39.00		416.44E+00
			-38.50		417.11E+00
			-38.00		417.85E+00
			-37.50		418.59E+00
			-37.00		419.38E+00
			-36.50		420.47E+00
			-36.00		421.51E+00
			-35.50		422.21E+00
			-35.00		422.92E+00
			-34.50		423.77E+00
			-34.00		424.60E+00
			-33.50		425.37E+00
			-33.00		426.08E+00
			-32.50		426.86E+00
			-32.00		427.73E+00
			-31.50		428.50E+00
			-31.00		429.19E+00
			-30.50		429.89E+00
			-30.00		430.67E+00
			-29.50		431.40E+00
			-29.00		432.06E+00
			-28.50		432.79E+00
			-28.00		433.47E+00
			-27.50		434.17E+00
			-27.00		434.98E+00
			-26.50		435.87E+00
			-26.00		436.57E+00
			-25.50		437.08E+00
			-25.00		437.74E+00
			-24.50		438.53E+00
			-24.00		439.25E+00
			-23.50		439.77E+00
			-23.00		440.28E+00
			-22.50		440.84E+00
			-22.00		441.37E+00
			-21.50		441.90E+00
			-21.00		442.51E+00
			-20.50		443.18E+00
			-20.00		443.84E+00
			-19.50		444.37E+00
			-19.00		444.87E+00
			-18.50		445.46E+00
			-18.00		446.07E+00
			-17.50		446.58E+00
			-17.00		447.02E+00
			-16.50		447.38E+00
			-16.00		447.80E+00
			-15.50		448.36E+00
			-15.00		448.89E+00
			-14.50		449.29E+00
			-14.00		449.65E+00
			-13.50		449.91E+00
			-13.00		450.25E+00
			-12.50		450.68E+00
			-12.00		451.03E+00
			-11.50		451.29E+00
			-11.00		451.62E+00
			-10.50		451.97E+00
			-10.00		452.32E+00
			-9.50		452.54E+00
			-9.00		452.73E+00
			-8.50		453.04E+00
			-8.00		453.36E+00
			-7.50		453.57E+00
			-7.00		453.77E+00
			-6.50		454.06E+00
			-6.00		454.43E+00
			-5.50		454.72E+00
			-5.00		454.86E+00
			-4.50		454.96E+00
			-4.00		455.24E+00
			-3.50		455.54E+00
			-3.00		455.69E+00
			-2.50		455.66E+00
			-2.00		455.66E+00
			-1.50		455.67E+00
			-1.00		455.70E+00
			-0.50		455.92E+00
			0.00		456.09E+00
			0.50		455.92E+00
			1.00		455.70E+00
			1.50		455.67E+00
			2.00		455.66E+00
			2.50		455.66E+00
			3.00		455.69E+00
			3.50		455.54E+00
			4.00		455.24E+00
			4.50		454.96E+00
			5.00		454.86E+00
			5.50		454.72E+00
			6.00		454.43E+00
			6.50		454.06E+00
			7.00		453.77E+00
			7.50		453.57E+00
			8.00		453.36E+00
			8.50		453.04E+00
			9.00		452.73E+00
			9.50		452.54E+00
			10.00		452.32E+00
			10.50		451.97E+00
			11.00		451.62E+00
			11.50		451.29E+00
			12.00		451.03E+00
			12.50		450.68E+00
			13.00		450.25E+00
			13.50		449.91E+00
			14.00		449.65E+00
			14.50		449.29E+00
			15.00		448.89E+00
			15.50		448.36E+00
			16.00		447.80E+00
			16.50		447.38E+00
			17.00		447.02E+00
			17.50		446.58E+00
			18.00		446.07E+00
			18.50		445.46E+00
			19.00		444.87E+00
			19.50		444.37E+00
			20.00		443.84E+00
			20.50		443.18E+00
			21.00		442.51E+00
			21.50		441.90E+00
			22.00		441.37E+00
			22.50		440.84E+00
			23.00		440.28E+00
			23.50		439.77E+00
			24.00		439.25E+00
			24.50		438.53E+00
			25.00		437.74E+00
			25.50		437.08E+00
			26.00		436.57E+00
			26.50		435.87E+00
			27.00		434.98E+00
			27.50		434.17E+00
			28.00		433.47E+00
			28.50		432.79E+00
			29.00		432.06E+00
			29.50		431.40E+00
			30.00		430.67E+00
			30.50		429.89E+00
			31.00		429.19E+00
			31.50		428.50E+00
			32.00		427.73E+00
			32.50		426.86E+00
			33.00		426.08E+00
			33.50		425.37E+00
			34.00		424.60E+00
			34.50		423.77E+00
			35.00		422.92E+00
			35.50		422.21E+00
			36.00		421.51E+00
			36.50		420.47E+00
			37.00		419.38E+00
			37.50		418.59E+00
			38.00		417.85E+00
			38.50		417.11E+00
			39.00		416.44E+00
			39.50		415.66E+00
			40.00		414.68E+00
			40.50		413.62E+00
			41.00		412.64E+00
			41.50		411.84E+00
			42.00		411.10E+00
			42.50		410.23E+00
			43.00		409.25E+00
			43.50		408.25E+00
			44.00		407.29E+00
			44.50		406.43E+00
			45.00		405.59E+00
			45.50		404.81E+00
			46.00		403.99E+00
			46.50		402.82E+00
			47.00		401.60E+00
			47.50		400.62E+00
			48.00		399.72E+00
			48.50		398.96E+00
			49.00		398.17E+00
			49.50		397.20E+00
			50.00		396.21E+00
			50.50		395.26E+00
			51.00		394.27E+00
			51.50		393.16E+00
			52.00		392.04E+00
			52.50		390.99E+00
			53.00		389.95E+00
			53.50		388.81E+00
			54.00		387.68E+00
			54.50		386.91E+00
			55.00		386.13E+00
			55.50		384.89E+00
			56.00		383.61E+00
			56.50		382.67E+00
			57.00		381.73E+00
			57.50		380.54E+00
			58.00		379.35E+00
			58.50		378.13E+00
			59.00		376.83E+00
			59.50		375.59E+00
			60.00		374.34E+00
			60.50		372.99E+00
			61.00		371.69E+00
			61.50		370.32E+00
			62.00		368.76E+00
			62.50		366.95E+00
			63.00		365.13E+00
			63.50		363.15E+00
			64.00		361.06E+00
			64.50		358.74E+00
			65.00		356.22E+00
			65.50		352.90E+00
			66.00		349.20E+00
			66.50		344.64E+00
			67.00		339.49E+00
			67.50		332.42E+00
			68.00		324.24E+00
			68.50		313.23E+00
			69.00		301.02E+00
			69.50		285.41E+00
			70.00		268.55E+00
			70.50		249.37E+00
			71.00		229.46E+00
			71.50		208.33E+00
			72.00		187.04E+00
			72.50		165.85E+00
			73.00		144.86E+00
			73.50		125.18E+00
			74.00		106.38E+00
			74.50		90.153E+00
			75.00		75.303E+00
			75.50		63.764E+00
			76.00		53.494E+00
			76.50		46.461E+00
			77.00		40.553E+00
			77.50		36.595E+00
			78.00		33.264E+00
			78.50		30.887E+00
			79.00		28.827E+00
			79.50		27.302E+00
			80.00		25.937E+00
			80.50		24.818E+00
			81.00		23.807E+00
			81.50		23.026E+00
			82.00		22.278E+00
			82.50		21.569E+00
			83.00		20.896E+00
			83.50		20.328E+00
			84.00		19.795E+00
			84.50		19.318E+00
			85.00		18.856E+00
			85.50		18.432E+00
			86.00		18.013E+00
			86.50		17.606E+00
			87.00		17.222E+00
			87.50		16.906E+00
			88.00		16.595E+00
			88.50		16.291E+00
			89.00		16.000E+00
			89.50		15.717E+00
			90.00		15.437E+00
			90.50		15.195E+00
			91.00		14.958E+00
			91.50		14.704E+00
			92.00		14.441E+00
			92.50		14.181E+00
			93.00		13.951E+00
			93.50		13.780E+00
			94.00		13.605E+00
			94.50		13.423E+00
			95.00		13.240E+00
			95.50		13.033E+00
			96.00		12.829E+00
			96.50		12.662E+00
			97.00		12.493E+00
			97.50		12.332E+00
			98.00		12.185E+00
			98.50		12.002E+00
			99.00		11.804E+00
			99.50		11.648E+00
			100.00		11.507E+00
			100.50		11.380E+00
			101.00		11.256E+00
			101.50		11.126E+00
			102.00		10.990E+00
			102.50		10.846E+00
			103.00		10.705E+00
			103.50		10.581E+00
			104.00		10.463E+00
			104.50		10.342E+00
			105.00		10.218E+00
			105.50		10.103E+00
			106.00		9.9892E+00
			106.50		9.8682E+00
			107.00		9.7511E+00
			107.50		9.6593E+00
			108.00		9.5748E+00
			108.50		9.4757E+00
			109.00		9.3715E+00
			109.50		9.2896E+00
			110.00		9.2206E+00
			110.50		6.0898E+00
			111.00		6.0155E+00
			111.50		5.9580E+00
			112.00		5.9059E+00
			112.50		5.8392E+00
			113.00		5.7693E+00
			113.50		5.7061E+00
			114.00		5.6438E+00
			114.50		5.6013E+00
			115.00		5.5623E+00
			115.50		5.4967E+00
			116.00		5.4288E+00
			116.50		5.3803E+00
			117.00		5.3334E+00
			117.50		5.2923E+00
			118.00		5.2597E+00
			118.50		5.2217E+00
			119.00		5.1699E+00
			119.50		5.1079E+00
			120.00		5.0189E+00
		END_DATA
	END_SCAN  1
	BEGIN_SCAN  2
		TASK_NAME=tba PDD Profiles
		PROGRAM=WaterTankScans
		COMMENT=Average
		MEAS_DATE=15-Mar-2022 16:20:50
		LINAC=MRIdian
		MODALITY=X
		ISOCENTER=900.00
		INPLANE_AXIS=Y
		CROSSPLANE_AXIS=X
		DEPTH_AXIS=Depth
		INPLANE_AXIS_DIR=TARGET_GUN
		CROSSPLANE_AXIS_DIR=LEFT_RIGHT
		DEPTH_AXIS_DIR=UP_DOWN
		ENERGY=6.00
		NOMINAL_DMAX=15.00
		SSD=850.00
		SCD=450.00
		WEDGE_ANGLE=0.00
		FIELD_INPLANE=149.00
		FIELD_CROSSPLANE=149.00
		FIELD_TYPE=RECTANGULAR
		GANTRY_UPRIGHT_POSITION=0
		GANTRY_ROTATION=CW
		COLL_ANGLE=0.00
		COLL_OFFSET_INPLANE=0.00
		COLL_OFFSET_CROSSPLANE=0.00
		SCAN_DEVICE=BeamScan
		SCAN_DEVICE_SETUP=BARA_LEFT_RIGHT
		ELECTROMETER=BeamScan
		RANGE_FIELD=LOW
		RANGE_REFERENCE=MEDIUM
		DETECTOR=THIMBLE_CHAMBER
		DETECTOR_RADIUS=2.40
		DETECTOR_NAME=A28MR
		DETECTOR_SN=-
		DETECTOR_CALIBRATION=588000000.00
		DETECTOR_IS_CALIBRATED=0
		DETECTOR_REFERENCE=THIMBLE_CHAMBER
		DETECTOR_REFERENCE_RADIUS=2.75
		DETECTOR_REFERENCE_NAME=A28MR
		DETECTOR_REFERENCE_SN=—
		DETECTOR_REFERENCE_IS_CALIBRATED=0
		DETECTOR_REFERENCE_CALIBRATION=303000000.00
		DETECTOR_HV=300.0
		DETECTOR_REFERENCE_HV=300.0
		DETECTOR_ORIENTATION=HORIZONTAL
		FILTER=FFF
		SCAN_SPEED_PROFILE=10.00
		SCAN_PROF_SPEED_DEP=DEPTH
		SCAN_SPEED_PDD=0.00
		SCAN_PDD_SPEED_DEP=ENERGY
		DETECTOR_TYPE=A28MR
		REF_FIELD_DEPTH=50.00
		REF_FIELD_DEFINED=ISOCENTER
		REF_FIELD_INPLANE=100.00
		REF_FIELD_CROSSPLANE=100.00
		REF_SCAN_POSITIONS=-85.00;-84.00;-83.00;-82.00;-81.00;-80.00;-79.00;-78.00;-77.00;-76.00;-75.00;-74.00;-73.00;-72.00;-71.00;-70.00;-69.00;-68.00;-67.00;-66.00;-65.00;-64.00;-63.00;-62.00;-61.00;-60.00;-59.00;-58.00;-57.00;-56.00;-55.00;-54.00;-53.00;-52.00;-51.00;-50.00;-49.00;-48.00;-47.00;-46.00;-45.00;-44.00;-43.00;-42.00;-41.00;-40.00;-39.00;-38.00;-37.00;-36.00;-35.00;-34.00;-33.00;-32.00;-31.00;-30.00;-29.00;-28.00;-27.00;-26.00;-25.00;-24.00;-23.00;-22.00;-21.00;-20.00;-19.00;-18.00;-17.00;-16.00;-15.00;-14.00;-13.00;-12.00;-11.00;-10.00;-9.00;-8.00;-7.00;-6.00;-5.00;-4.00;-3.00;-2.00;-1.00;0.00;1.00;2.00;3.00;4.00;5.00;6.00;7.00;8.00;9.00;10.00;11.00;12.00;13.00;14.00;15.00;16.00;17.00;18.00;19.00;20.00;21.00;22.00;23.00;24.00;25.00;26.00;27.00;28.00;29.00;30.00;31.00;32.00;33.00;34.00;35.00;36.00;37.00;38.00;39.00;40.00;41.00;42.00;43.00;44.00;45.00;46.00;47.00;48.00;49.00;50.00;51.00;52.00;53.00;54.00;55.00;56.00;57.00;58.00;59.00;60.00;61.00;62.00;63.00;64.00;65.00;66.00;67.00;68.00;69.00;70.00;71.00;72.00;73.00;74.00;75.00;76.00;77.00;78.00;79.00;80.00;81.00;82.00;83.00;84.00;85.00;
		REF_OVERSCAN_FACTOR=1.00
		SCAN_CURVETYPE=CROSSPLANE_PROFILE
		SCAN_DEPTH=55.00
		SCAN_OFFAXIS_INPLANE=0.00
		SCAN_OFFAXIS_CROSSPLANE=0.00
		SCAN_ANGLE=0.00
		SCAN_DIAGONAL=NOT_DIAGONAL
		SCAN_DIRECTION=POSITIVE
		MEAS_MEDIUM=WATER
		MEAS_PRESET=MEAS_CONTINUOUS_REFERENCE_SCAN
		MEAS_TIME=0.100
		MEAS_UNIT=A.U.
		INCLINATION_ANGLE=0.00
		PRESSURE=1013.25
		TEMPERATURE=20.00
		NORM_TEMPERATURE=20.00
		CORRECTION_FACTOR=1.0000
		EXPECTED_MAX_DOSE_RATE=3.00
		EPOM_DEPTH_SHIFT=0.2
		EPOM_MODE=SHIFT_PROTOCOL
		CORRECTIONS=CAX_CORR;INTERPOLATED_CORR;SYMMETRY_CORR;ADD_CURVES_CORR;
		BEGIN_DATA
			-128.50		3.3196E+00
			-128.00		3.3486E+00
			-127.50		3.3773E+00
			-127.00		3.4043E+00
			-126.50		3.4312E+00
			-126.00		3.4735E+00
			-125.50		3.5208E+00
			-125.00		3.5534E+00
			-124.50		3.5754E+00
			-124.00		3.5977E+00
			-123.50		3.6197E+00
			-123.00		3.6490E+00
			-122.50		3.6926E+00
			-122.00		3.7336E+00
			-121.50		3.7656E+00
			-121.00		3.7969E+00
			-120.50		3.8308E+00
			-120.00		7.0493E+00
			-119.50		7.0882E+00
			-119.00		7.1603E+00
			-118.50		7.2531E+00
			-118.00		7.3506E+00
			-117.50		7.4326E+00
			-117.00		7.5068E+00
			-116.50		7.6044E+00
			-116.00		7.7070E+00
			-115.50		7.7762E+00
			-115.00		7.8438E+00
			-114.50		7.9221E+00
			-114.00		8.0110E+00
			-113.50		8.1089E+00
			-113.00		8.1978E+00
			-112.50		8.3004E+00
			-112.00		8.4082E+00
			-111.50		8.4978E+00
			-111.00		8.5901E+00
			-110.50		8.6963E+00
			-110.00		13.196E+00
			-109.50		13.343E+00
			-109.00		13.480E+00
			-108.50		13.759E+00
			-108.00		13.943E+00
			-107.50		14.034E+00
			-107.00		14.156E+00
			-106.50		14.332E+00
			-106.00		14.540E+00
			-105.50		14.704E+00
			-105.00		14.883E+00
			-104.50		15.097E+00
			-104.00		15.322E+00
			-103.50		15.523E+00
			-103.00		15.728E+00
			-102.50		15.913E+00
			-102.00		16.093E+00
			-101.50		16.333E+00
			-101.00		16.569E+00
			-100.50		16.831E+00
			-100.00		17.063E+00
			-99.50		17.325E+00
			-99.00		17.603E+00
			-98.50		17.847E+00
			-98.00		18.100E+00
			-97.50		18.345E+00
			-97.00		18.701E+00
			-96.50		18.963E+00
			-96.00		19.220E+00
			-95.50		19.586E+00
			-95.00		19.859E+00
			-94.50		20.221E+00
			-94.00		20.611E+00
			-93.50		20.936E+00
			-93.00		21.260E+00
			-92.50		21.590E+00
			-92.00		21.965E+00
			-91.50		22.400E+00
			-91.00		22.800E+00
			-90.50		23.270E+00
			-90.00		23.682E+00
			-89.50		24.176E+00
			-89.00		24.682E+00
			-88.50		25.197E+00
			-88.00		25.748E+00
			-87.50		26.355E+00
			-87.00		26.892E+00
			-86.50		27.495E+00
			-86.00		28.199E+00
			-85.50		28.949E+00
			-85.00		29.697E+00
			-84.50		30.512E+00
			-84.00		31.375E+00
			-83.50		32.426E+00
			-83.00		33.645E+00
			-82.50		34.903E+00
			-82.00		36.409E+00
			-81.50		38.214E+00
			-81.00		40.397E+00
			-80.50		43.201E+00
			-80.00		46.655E+00
			-79.50		51.277E+00
			-79.00		57.111E+00
			-78.50		64.908E+00
			-78.00		74.160E+00
			-77.50		85.749E+00
			-77.00		98.482E+00
			-76.50		113.21E+00
			-76.00		128.49E+00
			-75.50		145.26E+00
			-75.00		162.28E+00
			-74.50		179.62E+00
			-74.00		196.92E+00
			-73.50		213.76E+00
			-73.00		230.28E+00
			-72.50		245.28E+00
			-72.00		259.55E+00
			-71.50		271.34E+00
			-71.00		282.11E+00
			-70.50		290.59E+00
			-70.00		297.71E+00
			-69.50		303.55E+00
			-69.00		308.33E+00
			-68.50		312.40E+00
			-68.00		315.58E+00
			-67.50		318.60E+00
			-67.00		321.16E+00
			-66.50		323.36E+00
			-66.00		325.38E+00
			-65.50		327.41E+00
			-65.00		329.20E+00
			-64.50		330.76E+00
			-64.00		332.16E+00
			-63.50		333.55E+00
			-63.00		334.82E+00
			-62.50		336.01E+00
			-62.00		337.35E+00
			-61.50		338.72E+00
			-61.00		340.04E+00
			-60.50		341.15E+00
			-60.00		342.26E+00
			-59.50		343.31E+00
			-59.00		344.32E+00
			-58.50		345.46E+00
			-58.00		346.59E+00
			-57.50		347.77E+00
			-57.00		349.01E+00
			-56.50		349.93E+00
			-56.00		350.84E+00
			-55.50		351.98E+00
			-55.00		353.10E+00
			-54.50		354.10E+00
			-54.00		355.02E+00
			-53.50		355.91E+00
			-53.00		356.75E+00
			-52.50		357.58E+00
			-52.00		358.54E+00
			-51.50		359.58E+00
			-51.00		360.57E+00
			-50.50		361.55E+00
			-50.00		362.47E+00
			-49.50		363.49E+00
			-49.00		364.49E+00
			-48.50		365.33E+00
			-48.00		366.12E+00
			-47.50		366.95E+00
			-47.00		367.81E+00
			-46.50		368.64E+00
			-46.00		369.55E+00
			-45.50		370.47E+00
			-45.00		371.39E+00
			-44.50		372.30E+00
			-44.00		373.18E+00
			-43.50		373.98E+00
			-43.00		374.86E+00
			-42.50		375.72E+00
			-42.00		376.54E+00
			-41.50		377.28E+00
			-41.00		378.06E+00
			-40.50		378.97E+00
			-40.00		379.85E+00
			-39.50		380.63E+00
			-39.00		381.39E+00
			-38.50		381.99E+00
			-38.00		382.66E+00
			-37.50		383.47E+00
			-37.00		384.29E+00
			-36.50		385.12E+00
			-36.00		385.94E+00
			-35.50		386.60E+00
			-35.00		387.22E+00
			-34.50		387.99E+00
			-34.00		388.78E+00
			-33.50		389.58E+00
			-33.00		390.30E+00
			-32.50		390.93E+00
			-32.00		391.51E+00
			-31.50		392.17E+00
			-31.00		392.86E+00
			-30.50		393.52E+00
			-30.00		394.18E+00
			-29.50		394.81E+00
			-29.00		395.49E+00
			-28.50		396.06E+00
			-28.00		396.61E+00
			-27.50		397.24E+00
			-27.00		397.89E+00
			-26.50		398.40E+00
			-26.00		398.92E+00
			-25.50		399.61E+00
			-25.00		400.30E+00
			-24.50		400.99E+00
			-24.00		401.70E+00
			-23.50		402.28E+00
			-23.00		402.71E+00
			-22.50		403.24E+00
			-22.00		403.75E+00
			-21.50		404.31E+00
			-21.00		404.85E+00
			-20.50		405.31E+00
			-20.00		405.76E+00
			-19.50		406.27E+00
			-19.00		406.73E+00
			-18.50		407.09E+00
			-18.00		407.51E+00
			-17.50		407.98E+00
			-17.00		408.41E+00
			-16.50		408.74E+00
			-16.00		409.04E+00
			-15.50		409.42E+00
			-15.00		409.86E+00
			-14.50		410.29E+00
			-14.00		410.62E+00
			-13.50		410.91E+00
			-13.00		411.30E+00
			-12.50		411.70E+00
			-12.00		412.07E+00
			-11.50		412.25E+00
			-11.00		412.41E+00
			-10.50		412.63E+00
			-10.00		412.88E+00
			-9.50		413.24E+00
			-9.00		413.53E+00
			-8.50		413.74E+00
			-8.00		413.93E+00
			-7.50		414.20E+00
			-7.00		414.52E+00
			-6.50		414.64E+00
			-6.00		414.79E+00
			-5.50		415.02E+00
			-5.00		415.17E+00
			-4.50		415.37E+00
			-4.00		415.60E+00
			-3.50		415.74E+00
			-3.00		415.91E+00
			-2.50		415.95E+00
			-2.00		415.98E+00
			-1.50		416.03E+00
			-1.00		416.10E+00
			-0.50		416.22E+00
			0.00		416.33E+00
			0.50		416.22E+00
			1.00		416.10E+00
			1.50		416.03E+00
			2.00		415.98E+00
			2.50		415.95E+00
			3.00		415.91E+00
			3.50		415.74E+00
			4.00		415.60E+00
			4.50		415.37E+00
			5.00		415.17E+00
			5.50		415.02E+00
			6.00		414.79E+00
			6.50		414.64E+00
			7.00		414.52E+00
			7.50		414.20E+00
			8.00		413.93E+00
			8.50		413.74E+00
			9.00		413.53E+00
			9.50		413.24E+00
			10.00		412.88E+00
			10.50		412.63E+00
			11.00		412.41E+00
			11.50		412.25E+00
			12.00		412.07E+00
			12.50		411.70E+00
			13.00		411.30E+00
			13.50		410.91E+00
			14.00		410.62E+00
			14.50		410.29E+00
			15.00		409.86E+00
			15.50		409.42E+00
			16.00		409.04E+00
			16.50		408.74E+00
			17.00		408.41E+00
			17.50		407.98E+00
			18.00		407.51E+00
			18.50		407.09E+00
			19.00		406.73E+00
			19.50		406.27E+00
			20.00		405.76E+00
			20.50		405.31E+00
			21.00		404.85E+00
			21.50		404.31E+00
			22.00		403.75E+00
			22.50		403.24E+00
			23.00		402.71E+00
			23.50		402.28E+00
			24.00		401.70E+00
			24.50		400.99E+00
			25.00		400.30E+00
			25.50		399.61E+00
			26.00		398.92E+00
			26.50		398.40E+00
			27.00		397.89E+00
			27.50		397.24E+00
			28.00		396.61E+00
			28.50		396.06E+00
			29.00		395.49E+00
			29.50		394.81E+00
			30.00		394.18E+00
			30.50		393.52E+00
			31.00		392.86E+00
			31.50		392.17E+00
			32.00		391.51E+00
			32.50		390.93E+00
			33.00		390.30E+00
			33.50		389.58E+00
			34.00		388.78E+00
			34.50		387.99E+00
			35.00		387.22E+00
			35.50		386.60E+00
			36.00		385.94E+00
			36.50		385.12E+00
			37.00		384.29E+00
			37.50		383.47E+00
			38.00		382.66E+00
			38.50		381.99E+00
			39.00		381.39E+00
			39.50		380.63E+00
			40.00		379.85E+00
			40.50		378.97E+00
			41.00		378.06E+00
			41.50		377.28E+00
			42.00		376.54E+00
			42.50		375.72E+00
			43.00		374.86E+00
			43.50		373.98E+00
			44.00		373.18E+00
			44.50		372.30E+00
			45.00		371.39E+00
			45.50		370.47E+00
			46.00		369.55E+00
			46.50		368.64E+00
			47.00		367.81E+00
			47.50		366.95E+00
			48.00		366.12E+00
			48.50		365.33E+00
			49.00		364.49E+00
			49.50		363.49E+00
			50.00		362.47E+00
			50.50		361.55E+00
			51.00		360.57E+00
			51.50		359.58E+00
			52.00		358.54E+00
			52.50		357.58E+00
			53.00		356.75E+00
			53.50		355.91E+00
			54.00		355.02E+00
			54.50		354.10E+00
			55.00		353.10E+00
			55.50		351.98E+00
			56.00		350.84E+00
			56.50		349.93E+00
			57.00		349.01E+00
			57.50		347.77E+00
			58.00		346.59E+00
			58.50		345.46E+00
			59.00		344.32E+00
			59.50		343.31E+00
			60.00		342.26E+00
			60.50		341.15E+00
			61.00		340.04E+00
			61.50		338.72E+00
			62.00		337.35E+00
			62.50		336.01E+00
			63.00		334.82E+00
			63.50		333.55E+00
			64.00		332.16E+00
			64.50		330.76E+00
			65.00		329.20E+00
			65.50		327.41E+00
			66.00		325.38E+00
			66.50		323.36E+00
			67.00		321.16E+00
			67.50		318.60E+00
			68.00		315.58E+00
			68.50		312.40E+00
			69.00		308.33E+00
			69.50		303.55E+00
			70.00		297.71E+00
			70.50		290.59E+00
			71.00		282.11E+00
			71.50		271.34E+00
			72.00		259.55E+00
			72.50		245.28E+00
			73.00		230.28E+00
			73.50		213.76E+00
			74.00		196.92E+00
			74.50		179.62E+00
			75.00		162.28E+00
			75.50		145.26E+00
			76.00		128.49E+00
			76.50		113.21E+00
			77.00		98.482E+00
			77.50		85.749E+00
			78.00		74.160E+00
			78.50		64.908E+00
			79.00		57.111E+00
			79.50		51.277E+00
			80.00		46.655E+00
			80.50		43.201E+00
			81.00		40.397E+00
			81.50		38.214E+00
			82.00		36.409E+00
			82.50		34.903E+00
			83.00		33.645E+00
			83.50		32.426E+00
			84.00		31.375E+00
			84.50		30.512E+00
			85.00		29.697E+00
			85.50		28.949E+00
			86.00		28.199E+00
			86.50		27.495E+00
			87.00		26.892E+00
			87.50		26.355E+00
			88.00		25.748E+00
			88.50		25.197E+00
			89.00		24.682E+00
			89.50		24.176E+00
			90.00		23.682E+00
			90.50		23.270E+00
			91.00		22.800E+00
			91.50		22.400E+00
			92.00		21.965E+00
			92.50		21.590E+00
			93.00		21.260E+00
			93.50		20.936E+00
			94.00		20.611E+00
			94.50		20.221E+00
			95.00		19.859E+00
			95.50		19.586E+00
			96.00		19.220E+00
			96.50		18.963E+00
			97.00		18.701E+00
			97.50		18.345E+00
			98.00		18.100E+00
			98.50		17.847E+00
			99.00		17.603E+00
			99.50		17.325E+00
			100.00		17.063E+00
			100.50		16.831E+00
			101.00		16.569E+00
			101.50		16.333E+00
			102.00		16.093E+00
			102.50		15.913E+00
			103.00		15.728E+00
			103.50		15.523E+00
			104.00		15.322E+00
			104.50		15.097E+00
			105.00		14.883E+00
			105.50		14.704E+00
			106.00		14.540E+00
			106.50		14.332E+00
			107.00		14.156E+00
			107.50		14.034E+00
			108.00		13.943E+00
			108.50		13.759E+00
			109.00		13.480E+00
			109.50		13.343E+00
			110.00		13.196E+00
			110.50		8.6963E+00
			111.00		8.5901E+00
			111.50		8.4978E+00
			112.00		8.4082E+00
			112.50		8.3004E+00
			113.00		8.1978E+00
			113.50		8.1089E+00
			114.00		8.0110E+00
			114.50		7.9221E+00
			115.00		7.8438E+00
			115.50		7.7762E+00
			116.00		7.7070E+00
			116.50		7.6044E+00
			117.00		7.5068E+00
			117.50		7.4326E+00
			118.00		7.3506E+00
			118.50		7.2531E+00
			119.00		7.1603E+00
			119.50		7.0882E+00
			120.00		7.0493E+00
			120.50		3.8308E+00
			121.00		3.7969E+00
			121.50		3.7656E+00
			122.00		3.7336E+00
			122.50		3.6926E+00
			123.00		3.6490E+00
			123.50		3.6197E+00
			124.00		3.5977E+00
			124.50		3.5754E+00
			125.00		3.5534E+00
			125.50		3.5208E+00
			126.00		3.4735E+00
			126.50		3.4312E+00
			127.00		3.4043E+00
			127.50		3.3773E+00
			128.00		3.3486E+00
			128.50		3.3196E+00
		END_DATA
	END_SCAN  2
	BEGIN_SCAN  3
		TASK_NAME=tba PDD Profiles
		PROGRAM=WaterTankScans
		COMMENT=Average
		MEAS_DATE=15-Mar-2022 16:21:15
		LINAC=MRIdian
		MODALITY=X
		ISOCENTER=900.00
		INPLANE_AXIS=Y
		CROSSPLANE_AXIS=X
		DEPTH_AXIS=Depth
		INPLANE_AXIS_DIR=TARGET_GUN
		CROSSPLANE_AXIS_DIR=LEFT_RIGHT
		DEPTH_AXIS_DIR=UP_DOWN
		ENERGY=6.00
		NOMINAL_DMAX=15.00
		SSD=850.00
		SCD=450.00
		WEDGE_ANGLE=0.00
		FIELD_INPLANE=149.00
		FIELD_CROSSPLANE=149.00
		FIELD_TYPE=RECTANGULAR
		GANTRY_UPRIGHT_POSITION=0
		GANTRY_ROTATION=CW
		COLL_ANGLE=0.00
		COLL_OFFSET_INPLANE=0.00
		COLL_OFFSET_CROSSPLANE=0.00
		SCAN_DEVICE=BeamScan
		SCAN_DEVICE_SETUP=BARA_LEFT_RIGHT
		ELECTROMETER=BeamScan
		RANGE_FIELD=LOW
		RANGE_REFERENCE=MEDIUM
		DETECTOR=THIMBLE_CHAMBER
		DETECTOR_RADIUS=2.40
		DETECTOR_NAME=A28MR
		DETECTOR_SN=-
		DETECTOR_CALIBRATION=588000000.00
