BEGIN_SCAN_DATA
	FORMAT=CC-Export V1.9                  
	FILE_CREATION_DATE=26-Jul-2022 10:32:39
	LAST_MODIFIED=26-Jul-2022 10:32:39
	BEGIN_SCAN  1
		TASK_NAME=tba PDD Profiles
		PROGRAM=WaterTankScans
		COMMENT=PDD + 5x X
		MEAS_DATE=08-Feb-2021 10:17:42
		LINAC=TRUEBEAMSN4791
		MODALITY=X
		ISOCENTER=1000.00
		INPLANE_AXIS=Y
		CROSSPLANE_AXIS=X
		DEPTH_AXIS=Depth
		INPLANE_AXIS_DIR=TARGET_GUN
		CROSSPLANE_AXIS_DIR=LEFT_RIGHT
		DEPTH_AXIS_DIR=UP_DOWN
		ENERGY=6.00
		NOMINAL_DMAX=15.00
		SSD=900.00
		SCD=450.00
		WEDGE_ANGLE=0.00
		FIELD_INPLANE=300.00
		FIELD_CROSSPLANE=300.00
		FIELD_TYPE=RECTANGULAR
		GANTRY=0.00
		GANTRY_UPRIGHT_POSITION=0
		GANTRY_ROTATION=CW
		COLL_ANGLE=0.00
		COLL_OFFSET_INPLANE=0.00
		COLL_OFFSET_CROSSPLANE=0.00
		SCAN_DEVICE=BeamScan
		SCAN_DEVICE_SETUP=BARA_LEFT_RIGHT
		ELECTROMETER=BeamScan
		RANGE_FIELD=LOW
		RANGE_REFERENCE=MEDIUM
		DETECTOR=THIMBLE_CHAMBER
		DETECTOR_SUBCODE=SEMIFLEX
		DETECTOR_RADIUS=2.40
		DETECTOR_NAME=PTW 31021 Semiflex 3D (1)
		DETECTOR_SN=142316
		DETECTOR_CALIBRATION=588000000.00
		DETECTOR_IS_CALIBRATED=1
		DETECTOR_REFERENCE=THIMBLE_CHAMBER
		DETECTOR_REFERENCE_SUBCODE=SEMIFLEX
		DETECTOR_REFERENCE_RADIUS=2.75
		DETECTOR_REFERENCE_NAME=PTW 31010 Semiflex (1)
		DETECTOR_REFERENCE_SN=—
		DETECTOR_REFERENCE_IS_CALIBRATED=0
		DETECTOR_REFERENCE_CALIBRATION=303000000.00
		DETECTOR_HV=400.0
		DETECTOR_REFERENCE_HV=400.0
		DETECTOR_ORIENTATION=HORIZONTAL
		FILTER=FF
		SCAN_SPEED_PROFILE=12.50
		SCAN_PROF_SPEED_DEP=DEPTH
		SCAN_SPEED_PDD=12.50
		SCAN_PDD_SPEED_DEP=ENERGY
		DETECTOR_TYPE=T31021
		REF_FIELD_DEPTH=100.00
		REF_FIELD_DEFINED=ISOCENTER
		REF_FIELD_INPLANE=100.00
		REF_FIELD_CROSSPLANE=100.00
		REF_SCAN_POSITIONS=-85.00;-84.00;-83.00;-82.00;-81.00;-80.00;-79.00;-78.00;-77.00;-76.00;-75.00;-74.00;-73.00;-72.00;-71.00;-70.00;-69.00;-68.00;-67.00;-66.00;-65.00;-64.00;-63.00;-62.00;-61.00;-60.00;-59.00;-58.00;-57.00;-56.00;-55.00;-54.00;-53.00;-52.00;-51.00;-50.00;-49.00;-48.00;-47.00;-46.00;-45.00;-44.00;-43.00;-42.00;-41.00;-40.00;-39.00;-38.00;-37.00;-36.00;-35.00;-34.00;-33.00;-32.00;-31.00;-30.00;-29.00;-28.00;-27.00;-26.00;-25.00;-24.00;-23.00;-22.00;-21.00;-20.00;-19.00;-18.00;-17.00;-16.00;-15.00;-14.00;-13.00;-12.00;-11.00;-10.00;-9.00;-8.00;-7.00;-6.00;-5.00;-4.00;-3.00;-2.00;-1.00;0.00;1.00;2.00;3.00;4.00;5.00;6.00;7.00;8.00;9.00;10.00;11.00;12.00;13.00;14.00;15.00;16.00;17.00;18.00;19.00;20.00;21.00;22.00;23.00;24.00;25.00;26.00;27.00;28.00;29.00;30.00;31.00;32.00;33.00;34.00;35.00;36.00;37.00;38.00;39.00;40.00;41.00;42.00;43.00;44.00;45.00;46.00;47.00;48.00;49.00;50.00;51.00;52.00;53.00;54.00;55.00;56.00;57.00;58.00;59.00;60.00;61.00;62.00;63.00;64.00;65.00;66.00;67.00;68.00;69.00;70.00;71.00;72.00;73.00;74.00;75.00;76.00;77.00;78.00;79.00;80.00;81.00;82.00;83.00;84.00;85.00;
		REF_OVERSCAN_FACTOR=1.00
		SCAN_CURVETYPE=CROSSPLANE_PROFILE
		SCAN_DEPTH=15.00
		SCAN_OFFAXIS_INPLANE=0.00
		SCAN_OFFAXIS_CROSSPLANE=0.00
		SCAN_ANGLE=0.00
		SCAN_DIAGONAL=NOT_DIAGONAL
		SCAN_DIRECTION=POSITIVE
		MEAS_MEDIUM=WATER
		MEAS_PRESET=MEAS_CONTINUOUS_REFERENCE_SCAN
		MEAS_TIME=0.080
		MEAS_UNIT=A.U.
		INCLINATION_ANGLE=0.00
		PRESSURE=1013.25
		TEMPERATURE=20.00
		NORM_TEMPERATURE=20.00
		CORRECTION_FACTOR=1.0000
		EXPECTED_MAX_DOSE_RATE=3.00
		EPOM_DEPTH_SHIFT=0.2
		EPOM_MODE=SHIFT_PROTOCOL
		CORRECTIONS=SMOOTHED_CORR;CAX_CORR;SYMMETRY_CORR;INTERPOLATED_CORR;
		BEGIN_DATA
			-170.00		62.750E-03
			-169.50		64.170E-03
			-169.00		65.590E-03
			-168.50		66.471E-03
			-168.00		67.352E-03
			-167.50		68.267E-03
			-167.00		69.183E-03
			-166.50		70.111E-03
			-166.00		71.040E-03
			-165.50		71.869E-03
			-165.00		72.698E-03
			-164.50		73.762E-03
			-164.00		74.827E-03
			-163.50		75.546E-03
			-163.00		76.264E-03
			-162.50		77.239E-03
			-162.00		78.215E-03
			-161.50		79.355E-03
			-161.00		80.495E-03
			-160.50		81.703E-03
			-160.00		82.912E-03
			-159.50		83.957E-03
			-159.00		85.002E-03
			-158.50		86.023E-03
			-158.00		87.045E-03
			-157.50		88.172E-03
			-157.00		89.299E-03
			-156.50		90.553E-03
			-156.00		91.807E-03
			-155.50		93.237E-03
			-155.00		94.667E-03
			-154.50		95.789E-03
			-154.00		96.910E-03
			-153.50		98.143E-03
			-153.00		99.376E-03
			-152.50		100.86E-03
			-152.00		102.35E-03
			-151.50		103.88E-03
			-151.00		105.41E-03
			-150.50		106.89E-03
			-150.00		108.37E-03
			-149.50		110.18E-03
			-149.00		112.00E-03
			-148.50		113.97E-03
			-148.00		115.94E-03
			-147.50		118.58E-03
			-147.00		121.23E-03
			-146.50		124.38E-03
			-146.00		127.53E-03
			-145.50		131.48E-03
			-145.00		135.43E-03
			-144.50		140.64E-03
			-144.00		145.86E-03
			-143.50		153.52E-03
			-143.00		161.19E-03
			-142.50		173.84E-03
			-142.00		186.48E-03
			-141.50		210.99E-03
			-141.00		235.49E-03
			-140.50		281.59E-03
			-140.00		327.70E-03
			-139.50		397.98E-03
			-139.00		468.26E-03
			-138.50		555.64E-03
			-138.00		643.03E-03
			-137.50		740.27E-03
			-137.00		837.51E-03
			-136.50		927.65E-03
			-136.00		1.0178E+00
			-135.50		1.0905E+00
			-135.00		1.1631E+00
			-134.50		1.2085E+00
			-134.00		1.2538E+00
			-133.50		1.2773E+00
			-133.00		1.3007E+00
			-132.50		1.3136E+00
			-132.00		1.3266E+00
			-131.50		1.3336E+00
			-131.00		1.3406E+00
			-130.50		1.3451E+00
			-130.00		1.3497E+00
			-129.50		1.3533E+00
			-129.00		1.3568E+00
			-128.50		1.3593E+00
			-128.00		1.3618E+00
			-127.50		1.3637E+00
			-127.00		1.3656E+00
			-126.50		1.3670E+00
			-126.00		1.3685E+00
			-125.50		1.3697E+00
			-125.00		1.3709E+00
			-124.50		1.3721E+00
			-124.00		1.3733E+00
			-123.50		1.3742E+00
			-123.00		1.3750E+00
			-122.50		1.3755E+00
			-122.00		1.3759E+00
			-121.50		1.3759E+00
			-121.00		1.3759E+00
			-120.50		1.3760E+00
			-120.00		1.3761E+00
			-119.50		1.3764E+00
			-119.00		1.3768E+00
			-118.50		1.3770E+00
			-118.00		1.3771E+00
			-117.50		1.3770E+00
			-117.00		1.3769E+00
			-116.50		1.3770E+00
			-116.00		1.3772E+00
			-115.50		1.3777E+00
			-115.00		1.3781E+00
			-114.50		1.3786E+00
			-114.00		1.3791E+00
			-113.50		1.3795E+00
			-113.00		1.3800E+00
			-112.50		1.3804E+00
			-112.00		1.3808E+00
			-111.50		1.3810E+00
			-111.00		1.3812E+00
			-110.50		1.3811E+00
			-110.00		1.3810E+00
			-109.50		1.3809E+00
			-109.00		1.3807E+00
			-108.50		1.3807E+00
			-108.00		1.3807E+00
			-107.50		1.3808E+00
			-107.00		1.3809E+00
			-106.50		1.3810E+00
			-106.00		1.3812E+00
			-105.50		1.3816E+00
			-105.00		1.3821E+00
			-104.50		1.3823E+00
			-104.00		1.3825E+00
			-103.50		1.3826E+00
			-103.00		1.3826E+00
			-102.50		1.3827E+00
			-102.00		1.3828E+00
			-101.50		1.3831E+00
			-101.00		1.3835E+00
			-100.50		1.3837E+00
			-100.00		1.3840E+00
			-99.50		1.3841E+00
			-99.00		1.3842E+00
			-98.50		1.3844E+00
			-98.00		1.3846E+00
			-97.50		1.3847E+00
			-97.00		1.3848E+00
			-96.50		1.3846E+00
			-96.00		1.3844E+00
			-95.50		1.3841E+00
			-95.00		1.3837E+00
			-94.50		1.3832E+00
			-94.00		1.3828E+00
			-93.50		1.3823E+00
			-93.00		1.3819E+00
			-92.50		1.3818E+00
			-92.00		1.3817E+00
			-91.50		1.3818E+00
			-91.00		1.3819E+00
			-90.50		1.3819E+00
			-90.00		1.3819E+00
			-89.50		1.3817E+00
			-89.00		1.3816E+00
			-88.50		1.3814E+00
			-88.00		1.3813E+00
			-87.50		1.3814E+00
			-87.00		1.3816E+00
			-86.50		1.3817E+00
			-86.00		1.3819E+00
			-85.50		1.3821E+00
			-85.00		1.3822E+00
			-84.50		1.3823E+00
			-84.00		1.3825E+00
			-83.50		1.3826E+00
			-83.00		1.3827E+00
			-82.50		1.3828E+00
			-82.00		1.3829E+00
			-81.50		1.3829E+00
			-81.00		1.3829E+00
			-80.50		1.3829E+00
			-80.00		1.3829E+00
			-79.50		1.3828E+00
			-79.00		1.3826E+00
			-78.50		1.3823E+00
			-78.00		1.3821E+00
			-77.50		1.3819E+00
			-77.00		1.3817E+00
			-76.50		1.3816E+00
			-76.00		1.3816E+00
			-75.50		1.3814E+00
			-75.00		1.3813E+00
			-74.50		1.3811E+00
			-74.00		1.3809E+00
			-73.50		1.3806E+00
			-73.00		1.3803E+00
			-72.50		1.3802E+00
			-72.00		1.3800E+00
			-71.50		1.3801E+00
			-71.00		1.3802E+00
			-70.50		1.3802E+00
			-70.00		1.3803E+00
			-69.50		1.3800E+00
			-69.00		1.3798E+00
			-68.50		1.3793E+00
			-68.00		1.3789E+00
			-67.50		1.3787E+00
			-67.00		1.3785E+00
			-66.50		1.3786E+00
			-66.00		1.3788E+00
			-65.50		1.3789E+00
			-65.00		1.3790E+00
			-64.50		1.3786E+00
			-64.00		1.3781E+00
			-63.50		1.3778E+00
			-63.00		1.3774E+00
			-62.50		1.3774E+00
			-62.00		1.3774E+00
			-61.50		1.3772E+00
			-61.00		1.3769E+00
			-60.50		1.3764E+00
			-60.00		1.3759E+00
			-59.50		1.3756E+00
			-59.00		1.3752E+00
			-58.50		1.3753E+00
			-58.00		1.3753E+00
			-57.50		1.3753E+00
			-57.00		1.3752E+00
			-56.50		1.3751E+00
			-56.00		1.3749E+00
			-55.50		1.3747E+00
			-55.00		1.3745E+00
			-54.50		1.3742E+00
			-54.00		1.3740E+00
			-53.50		1.3736E+00
			-53.00		1.3733E+00
			-52.50		1.3728E+00
			-52.00		1.3722E+00
			-51.50		1.3718E+00
			-51.00		1.3714E+00
			-50.50		1.3712E+00
			-50.00		1.3710E+00
			-49.50		1.3709E+00
			-49.00		1.3707E+00
			-48.50		1.3705E+00
			-48.00		1.3702E+00
			-47.50		1.3700E+00
			-47.00		1.3697E+00
			-46.50		1.3694E+00
			-46.00		1.3692E+00
			-45.50		1.3688E+00
			-45.00		1.3684E+00
			-44.50		1.3680E+00
			-44.00		1.3677E+00
			-43.50		1.3673E+00
			-43.00		1.3670E+00
			-42.50		1.3666E+00
			-42.00		1.3663E+00
			-41.50		1.3658E+00
			-41.00		1.3654E+00
			-40.50		1.3651E+00
			-40.00		1.3648E+00
			-39.50		1.3643E+00
			-39.00		1.3638E+00
			-38.50		1.3630E+00
			-38.00		1.3623E+00
			-37.50		1.3616E+00
			-37.00		1.3610E+00
			-36.50		1.3604E+00
			-36.00		1.3598E+00
			-35.50		1.3590E+00
			-35.00		1.3581E+00
			-34.50		1.3571E+00
			-34.00		1.3561E+00
			-33.50		1.3554E+00
			-33.00		1.3546E+00
			-32.50		1.3542E+00
			-32.00		1.3539E+00
			-31.50		1.3539E+00
			-31.00		1.3539E+00
			-30.50		1.3539E+00
			-30.00		1.3539E+00
			-29.50		1.3537E+00
			-29.00		1.3535E+00
			-28.50		1.3530E+00
			-28.00		1.3526E+00
			-27.50		1.3525E+00
			-27.00		1.3524E+00
			-26.50		1.3524E+00
			-26.00		1.3524E+00
			-25.50		1.3522E+00
			-25.00		1.3520E+00
			-24.50		1.3518E+00
			-24.00		1.3516E+00
			-23.50		1.3514E+00
			-23.00		1.3512E+00
			-22.50		1.3511E+00
			-22.00		1.3510E+00
			-21.50		1.3507E+00
			-21.00		1.3505E+00
			-20.50		1.3500E+00
			-20.00		1.3496E+00
			-19.50		1.3489E+00
			-19.00		1.3482E+00
			-18.50		1.3477E+00
			-18.00		1.3473E+00
			-17.50		1.3475E+00
			-17.00		1.3476E+00
			-16.50		1.3478E+00
			-16.00		1.3481E+00
			-15.50		1.3478E+00
			-15.00		1.3476E+00
			-14.50		1.3471E+00
			-14.00		1.3467E+00
			-13.50		1.3462E+00
			-13.00		1.3457E+00
			-12.50		1.3453E+00
			-12.00		1.3449E+00
			-11.50		1.3447E+00
			-11.00		1.3444E+00
			-10.50		1.3441E+00
			-10.00		1.3438E+00
			-9.50		1.3433E+00
			-9.00		1.3428E+00
			-8.50		1.3420E+00
			-8.00		1.3412E+00
			-7.50		1.3403E+00
			-7.00		1.3393E+00
			-6.50		1.3387E+00
			-6.00		1.3381E+00
			-5.50		1.3381E+00
			-5.00		1.3380E+00
			-4.50		1.3384E+00
			-4.00		1.3387E+00
			-3.50		1.3390E+00
			-3.00		1.3392E+00
			-2.50		1.3391E+00
			-2.00		1.3391E+00
			-1.50		1.3388E+00
			-1.00		1.3384E+00
			-0.50		1.3382E+00
			0.00		1.3380E+00
			0.50		1.3382E+00
			1.00		1.3384E+00
			1.50		1.3388E+00
			2.00		1.3391E+00
			2.50		1.3391E+00
			3.00		1.3392E+00
			3.50		1.3390E+00
			4.00		1.3387E+00
			4.50		1.3384E+00
			5.00		1.3380E+00
			5.50		1.3381E+00
			6.00		1.3381E+00
			6.50		1.3387E+00
			7.00		1.3393E+00
			7.50		1.3403E+00
			8.00		1.3412E+00
			8.50		1.3420E+00
			9.00		1.3428E+00
			9.50		1.3433E+00
			10.00		1.3438E+00
			10.50		1.3441E+00
			11.00		1.3444E+00
			11.50		1.3447E+00
			12.00		1.3449E+00
			12.50		1.3453E+00
			13.00		1.3457E+00
			13.50		1.3462E+00
			14.00		1.3467E+00
			14.50		1.3471E+00
			15.00		1.3476E+00
			15.50		1.3478E+00
			16.00		1.3481E+00
			16.50		1.3478E+00
			17.00		1.3476E+00
			17.50		1.3475E+00
			18.00		1.3473E+00
			18.50		1.3477E+00
			19.00		1.3482E+00
			19.50		1.3489E+00
			20.00		1.3496E+00
			20.50		1.3500E+00
			21.00		1.3505E+00
			21.50		1.3507E+00
			22.00		1.3510E+00
			22.50		1.3511E+00
			23.00		1.3512E+00
			23.50		1.3514E+00
			24.00		1.3516E+00
			24.50		1.3518E+00
			25.00		1.3520E+00
			25.50		1.3522E+00
			26.00		1.3524E+00
			26.50		1.3524E+00
			27.00		1.3524E+00
			27.50		1.3525E+00
			28.00		1.3526E+00
			28.50		1.3530E+00
			29.00		1.3535E+00
			29.50		1.3537E+00
			30.00		1.3539E+00
			30.50		1.3539E+00
			31.00		1.3539E+00
			31.50		1.3539E+00
			32.00		1.3539E+00
			32.50		1.3542E+00
			33.00		1.3546E+00
			33.50		1.3554E+00
			34.00		1.3561E+00
			34.50		1.3571E+00
			35.00		1.3581E+00
			35.50		1.3590E+00
			36.00		1.3598E+00
			36.50		1.3604E+00
			37.00		1.3610E+00
			37.50		1.3616E+00
			38.00		1.3623E+00
			38.50		1.3630E+00
			39.00		1.3638E+00
			39.50		1.3643E+00
			40.00		1.3648E+00
			40.50		1.3651E+00
			41.00		1.3654E+00
			41.50		1.3658E+00
			42.00		1.3663E+00
			42.50		1.3666E+00
			43.00		1.3670E+00
			43.50		1.3673E+00
			44.00		1.3677E+00
			44.50		1.3680E+00
			45.00		1.3684E+00
			45.50		1.3688E+00
			46.00		1.3692E+00
			46.50		1.3694E+00
			47.00		1.3697E+00
			47.50		1.3700E+00
			48.00		1.3702E+00
			48.50		1.3705E+00
			49.00		1.3707E+00
			49.50		1.3709E+00
			50.00		1.3710E+00
			50.50		1.3712E+00
			51.00		1.3714E+00
			51.50		1.3718E+00
			52.00		1.3722E+00
			52.50		1.3728E+00
			53.00		1.3733E+00
			53.50		1.3736E+00
			54.00		1.3740E+00
			54.50		1.3742E+00
			55.00		1.3745E+00
			55.50		1.3747E+00
			56.00		1.3749E+00
			56.50		1.3751E+00
			57.00		1.3752E+00
			57.50		1.3753E+00
			58.00		1.3753E+00
			58.50		1.3753E+00
			59.00		1.3752E+00
			59.50		1.3756E+00
			60.00		1.3759E+00
			60.50		1.3764E+00
			61.00		1.3769E+00
			61.50		1.3772E+00
			62.00		1.3774E+00
			62.50		1.3774E+00
			63.00		1.3774E+00
			63.50		1.3778E+00
			64.00		1.3781E+00
			64.50		1.3786E+00
			65.00		1.3790E+00
			65.50		1.3789E+00
			66.00		1.3788E+00
			66.50		1.3786E+00
			67.00		1.3785E+00
			67.50		1.3787E+00
			68.00		1.3789E+00
			68.50		1.3793E+00
			69.00		1.3798E+00
			69.50		1.3800E+00
			70.00		1.3803E+00
			70.50		1.3802E+00
			71.00		1.3802E+00
			71.50		1.3801E+00
			72.00		1.3800E+00
			72.50		1.3802E+00
			73.00		1.3803E+00
			73.50		1.3806E+00
			74.00		1.3809E+00
			74.50		1.3811E+00
			75.00		1.3813E+00
			75.50		1.3814E+00
			76.00		1.3816E+00
			76.50		1.3816E+00
			77.00		1.3817E+00
			77.50		1.3819E+00
			78.00		1.3821E+00
			78.50		1.3823E+00
			79.00		1.3826E+00
			79.50		1.3828E+00
			80.00		1.3829E+00
			80.50		1.3829E+00
			81.00		1.3829E+00
			81.50		1.3829E+00
			82.00		1.3829E+00
			82.50		1.3828E+00
			83.00		1.3827E+00
			83.50		1.3826E+00
			84.00		1.3825E+00
			84.50		1.3823E+00
			85.00		1.3822E+00
			85.50		1.3821E+00
			86.00		1.3819E+00
			86.50		1.3817E+00
			87.00		1.3816E+00
			87.50		1.3814E+00
			88.00		1.3813E+00
			88.50		1.3814E+00
			89.00		1.3816E+00
			89.50		1.3817E+00
			90.00		1.3819E+00
			90.50		1.3819E+00
			91.00		1.3819E+00
			91.50		1.3818E+00
			92.00		1.3817E+00
			92.50		1.3818E+00
			93.00		1.3819E+00
			93.50		1.3823E+00
			94.00		1.3828E+00
			94.50		1.3832E+00
			95.00		1.3837E+00
			95.50		1.3841E+00
			96.00		1.3844E+00
			96.50		1.3846E+00
			97.00		1.3848E+00
			97.50		1.3847E+00
			98.00		1.3846E+00
			98.50		1.3844E+00
			99.00		1.3842E+00
			99.50		1.3841E+00
			100.00		1.3840E+00
			100.50		1.3837E+00
			101.00		1.3835E+00
			101.50		1.3831E+00
			102.00		1.3828E+00
			102.50		1.3827E+00
			103.00		1.3826E+00
			103.50		1.3826E+00
			104.00		1.3825E+00
			104.50		1.3823E+00
			105.00		1.3821E+00
			105.50		1.3816E+00
			106.00		1.3812E+00
			106.50		1.3810E+00
			107.00		1.3809E+00
			107.50		1.3808E+00
			108.00		1.3807E+00
			108.50		1.3807E+00
			109.00		1.3807E+00
			109.50		1.3809E+00
			110.00		1.3810E+00
			110.50		1.3811E+00
			111.00		1.3812E+00
			111.50		1.3810E+00
			112.00		1.3808E+00
			112.50		1.3804E+00
			113.00		1.3800E+00
			113.50		1.3795E+00
			114.00		1.3791E+00
			114.50		1.3786E+00
			115.00		1.3781E+00
			115.50		1.3777E+00
			116.00		1.3772E+00
			116.50		1.3770E+00
			117.00		1.3769E+00
			117.50		1.3770E+00
			118.00		1.3771E+00
			118.50		1.3770E+00
			119.00		1.3768E+00
			119.50		1.3764E+00
			120.00		1.3761E+00
			120.50		1.3760E+00
			121.00		1.3759E+00
			121.50		1.3759E+00
			122.00		1.3759E+00
			122.50		1.3755E+00
			123.00		1.3750E+00
			123.50		1.3742E+00
			124.00		1.3733E+00
			124.50		1.3721E+00
			125.00		1.3709E+00
			125.50		1.3697E+00
			126.00		1.3685E+00
			126.50		1.3670E+00
			127.00		1.3656E+00
			127.50		1.3637E+00
			128.00		1.3618E+00
			128.50		1.3593E+00
			129.00		1.3568E+00
			129.50		1.3533E+00
			130.00		1.3497E+00
			130.50		1.3451E+00
			131.00		1.3406E+00
			131.50		1.3336E+00
			132.00		1.3266E+00
			132.50		1.3136E+00
			133.00		1.3007E+00
			133.50		1.2773E+00
			134.00		1.2538E+00
			134.50		1.2085E+00
			135.00		1.1631E+00
			135.50		1.0905E+00
			136.00		1.0178E+00
			136.50		927.65E-03
			137.00		837.51E-03
			137.50		740.27E-03
			138.00		643.03E-03
			138.50		555.64E-03
			139.00		468.26E-03
			139.50		397.98E-03
			140.00		327.70E-03
			140.50		281.59E-03
			141.00		235.49E-03
			141.50		210.99E-03
			142.00		186.48E-03
			142.50		173.84E-03
			143.00		161.19E-03
			143.50		153.52E-03
			144.00		145.86E-03
			144.50		140.64E-03
			145.00		135.43E-03
			145.50		131.48E-03
			146.00		127.53E-03
			146.50		124.38E-03
			147.00		121.23E-03
			147.50		118.58E-03
			148.00		115.94E-03
			148.50		113.97E-03
			149.00		112.00E-03
			149.50		110.18E-03
			150.00		108.37E-03
			150.50		106.89E-03
			151.00		105.41E-03
			151.50		103.88E-03
			152.00		102.35E-03
			152.50		100.86E-03
			153.00		99.376E-03
			153.50		98.143E-03
			154.00		96.910E-03
			154.50		95.789E-03
			155.00		94.667E-03
			155.50		93.237E-03
			156.00		91.807E-03
			156.50		90.553E-03
			157.00		89.299E-03
			157.50		88.172E-03
			158.00		87.045E-03
			158.50		86.023E-03
			159.00		85.002E-03
			159.50		83.957E-03
			160.00		82.912E-03
			160.50		81.703E-03
			161.00		80.495E-03
			161.50		79.355E-03
			162.00		78.215E-03
			162.50		77.239E-03
			163.00		76.264E-03
			163.50		75.546E-03
			164.00		74.827E-03
			164.50		73.762E-03
			165.00		72.698E-03
			165.50		71.869E-03
			166.00		71.040E-03
			166.50		70.111E-03
			167.00		69.183E-03
			167.50		68.267E-03
			168.00		67.352E-03
			168.50		66.471E-03
			169.00		65.590E-03
			169.50		64.170E-03
			170.00		62.750E-03
		END_DATA
	END_SCAN  1
	BEGIN_SCAN  2
		TASK_NAME=tba PDD Profiles
		PROGRAM=WaterTankScans
		COMMENT=PDD + 5x X
		MEAS_DATE=08-Feb-2021 10:18:18
		LINAC=TRUEBEAMSN4791
		MODALITY=X
		ISOCENTER=1000.00
		INPLANE_AXIS=Y
		CROSSPLANE_AXIS=X
		DEPTH_AXIS=Depth
		INPLANE_AXIS_DIR=TARGET_GUN
		CROSSPLANE_AXIS_DIR=LEFT_RIGHT
		DEPTH_AXIS_DIR=UP_DOWN
		ENERGY=6.00
		NOMINAL_DMAX=15.00
		SSD=900.00
		SCD=450.00
		WEDGE_ANGLE=0.00
		FIELD_INPLANE=300.00
		FIELD_CROSSPLANE=300.00
		FIELD_TYPE=RECTANGULAR
		GANTRY=0.00
		GANTRY_UPRIGHT_POSITION=0
		GANTRY_ROTATION=CW
		COLL_ANGLE=0.00
		COLL_OFFSET_INPLANE=0.00
		COLL_OFFSET_CROSSPLANE=0.00
		SCAN_DEVICE=BeamScan
		SCAN_DEVICE_SETUP=BARA_LEFT_RIGHT
		ELECTROMETER=BeamScan
		RANGE_FIELD=LOW
		RANGE_REFERENCE=MEDIUM
		DETECTOR=THIMBLE_CHAMBER
		DETECTOR_SUBCODE=SEMIFLEX
		DETECTOR_RADIUS=2.40
		DETECTOR_NAME=PTW 31021 Semiflex 3D (1)
		DETECTOR_SN=142316
		DETECTOR_CALIBRATION=588000000.00
		DETECTOR_IS_CALIBRATED=1
		DETECTOR_REFERENCE=THIMBLE_CHAMBER
		DETECTOR_REFERENCE_SUBCODE=SEMIFLEX
		DETECTOR_REFERENCE_RADIUS=2.75
		DETECTOR_REFERENCE_NAME=PTW 31010 Semiflex (1)
		DETECTOR_REFERENCE_SN=—
		DETECTOR_REFERENCE_IS_CALIBRATED=0
		DETECTOR_REFERENCE_CALIBRATION=303000000.00
		DETECTOR_HV=400.0
		DETECTOR_REFERENCE_HV=400.0
		DETECTOR_ORIENTATION=HORIZONTAL
		FILTER=FF
		SCAN_SPEED_PROFILE=12.50
		SCAN_PROF_SPEED_DEP=DEPTH
		SCAN_SPEED_PDD=12.50
		SCAN_PDD_SPEED_DEP=ENERGY
		DETECTOR_TYPE=T31021
		REF_FIELD_DEPTH=100.00
		REF_FIELD_DEFINED=ISOCENTER
		REF_FIELD_INPLANE=100.00
		REF_FIELD_CROSSPLANE=100.00
		REF_SCAN_POSITIONS=-85.00;-84.00;-83.00;-82.00;-81.00;-80.00;-79.00;-78.00;-77.00;-76.00;-75.00;-74.00;-73.00;-72.00;-71.00;-70.00;-69.00;-68.00;-67.00;-66.00;-65.00;-64.00;-63.00;-62.00;-61.00;-60.00;-59.00;-58.00;-57.00;-56.00;-55.00;-54.00;-53.00;-52.00;-51.00;-50.00;-49.00;-48.00;-47.00;-46.00;-45.00;-44.00;-43.00;-42.00;-41.00;-40.00;-39.00;-38.00;-37.00;-36.00;-35.00;-34.00;-33.00;-32.00;-31.00;-30.00;-29.00;-28.00;-27.00;-26.00;-25.00;-24.00;-23.00;-22.00;-21.00;-20.00;-19.00;-18.00;-17.00;-16.00;-15.00;-14.00;-13.00;-12.00;-11.00;-10.00;-9.00;-8.00;-7.00;-6.00;-5.00;-4.00;-3.00;-2.00;-1.00;0.00;1.00;2.00;3.00;4.00;5.00;6.00;7.00;8.00;9.00;10.00;11.00;12.00;13.00;14.00;15.00;16.00;17.00;18.00;19.00;20.00;21.00;22.00;23.00;24.00;25.00;26.00;27.00;28.00;29.00;30.00;31.00;32.00;33.00;34.00;35.00;36.00;37.00;38.00;39.00;40.00;41.00;42.00;43.00;44.00;45.00;46.00;47.00;48.00;49.00;50.00;51.00;52.00;53.00;54.00;55.00;56.00;57.00;58.00;59.00;60.00;61.00;62.00;63.00;64.00;65.00;66.00;67.00;68.00;69.00;70.00;71.00;72.00;73.00;74.00;75.00;76.00;77.00;78.00;79.00;80.00;81.00;82.00;83.00;84.00;85.00;
		REF_OVERSCAN_FACTOR=1.00
		SCAN_CURVETYPE=CROSSPLANE_PROFILE
		SCAN_DEPTH=50.00
		SCAN_OFFAXIS_INPLANE=0.00
		SCAN_OFFAXIS_CROSSPLANE=0.00
		SCAN_ANGLE=0.00
		SCAN_DIAGONAL=NOT_DIAGONAL
		SCAN_DIRECTION=NEGATIVE
		MEAS_MEDIUM=WATER
		MEAS_PRESET=MEAS_CONTINUOUS_REFERENCE_SCAN
		MEAS_TIME=0.080
		MEAS_UNIT=A.U.
		INCLINATION_ANGLE=0.00
		PRESSURE=1013.25
		TEMPERATURE=20.00
		NORM_TEMPERATURE=20.00
		CORRECTION_FACTOR=1.0000
		EXPECTED_MAX_DOSE_RATE=3.00
		EPOM_DEPTH_SHIFT=0.2
		EPOM_MODE=SHIFT_PROTOCOL
		CORRECTIONS=SMOOTHED_CORR;CAX_CORR;SYMMETRY_CORR;INTERPOLATED_CORR;
		BEGIN_DATA
			-176.00		74.013E-03
			-175.50		74.399E-03
			-175.00		74.785E-03
			-174.50		75.623E-03
			-174.00		76.462E-03
			-173.50		77.590E-03
			-173.00		78.718E-03
			-172.50		79.527E-03
			-172.00		80.336E-03
			-171.50		81.331E-03
			-171.00		82.327E-03
			-170.50		83.281E-03
			-170.00		84.234E-03
			-169.50		85.338E-03
			-169.00		86.442E-03
			-168.50		87.709E-03
			-168.00		88.975E-03
			-167.50		90.091E-03
			-167.00		91.208E-03
			-166.50		92.466E-03
			-166.00		93.724E-03
			-165.50		95.031E-03
			-165.00		96.338E-03
			-164.50		97.312E-03
			-164.00		98.287E-03
			-163.50		99.564E-03
			-163.00		100.84E-03
			-162.50		102.23E-03
			-162.00		103.61E-03
			-161.50		105.14E-03
			-161.00		106.67E-03
			-160.50		108.33E-03
			-160.00		109.98E-03
			-159.50		111.52E-03
			-159.00		113.05E-03
			-158.50		114.67E-03
			-158.00		116.28E-03
			-157.50		117.85E-03
			-157.00		119.43E-03
			-156.50		121.29E-03
			-156.00		123.16E-03
			-155.50		124.85E-03
			-155.00		126.54E-03
			-154.50		128.98E-03
			-154.00		131.42E-03
			-153.50		133.77E-03
			-153.00		136.13E-03
			-152.50		139.37E-03
			-152.00		142.61E-03
			-151.50		146.22E-03
			-151.00		149.83E-03
			-150.50		154.04E-03
			-150.00		158.25E-03
			-149.50		163.96E-03
			-149.00		169.67E-03
			-148.50		177.53E-03
			-148.00		185.40E-03
			-147.50		198.62E-03
			-147.00		211.84E-03
			-146.50		235.02E-03
			-146.00		258.19E-03
			-145.50		299.52E-03
			-145.00		340.84E-03
			-144.50		400.08E-03
			-144.00		459.31E-03
			-143.50		529.09E-03
			-143.00		598.88E-03
			-142.50		672.97E-03
			-142.00		747.06E-03
			-141.50		814.09E-03
			-141.00		881.11E-03
			-140.50		932.18E-03
			-140.00		983.26E-03
			-139.50		1.0152E+00
			-139.00		1.0472E+00
			-138.50		1.0655E+00
			-138.00		1.0838E+00
			-137.50		1.0940E+00
			-137.00		1.1042E+00
			-136.50		1.1108E+00
			-136.00		1.1174E+00
			-135.50		1.1223E+00
			-135.00		1.1272E+00
			-134.50		1.1312E+00
			-134.00		1.1351E+00
			-133.50		1.1382E+00
			-133.00		1.1414E+00
			-132.50		1.1435E+00
			-132.00		1.1455E+00
			-131.50		1.1472E+00
			-131.00		1.1488E+00
			-130.50		1.1506E+00
			-130.00		1.1524E+00
			-129.50		1.1544E+00
			-129.00		1.1564E+00
			-128.50		1.1581E+00
			-128.00		1.1597E+00
			-127.50		1.1609E+00
			-127.00		1.1620E+00
			-126.50		1.1630E+00
			-126.00		1.1641E+00
			-125.50		1.1650E+00
			-125.00		1.1658E+00
			-124.50		1.1665E+00
			-124.00		1.1672E+00
			-123.50		1.1679E+00
			-123.00		1.1686E+00
			-122.50		1.1695E+00
			-122.00		1.1703E+00
			-121.50		1.1711E+00
			-121.00		1.1718E+00
			-120.50		1.1723E+00
			-120.00		1.1729E+00
			-119.50		1.1734E+00
			-119.00		1.1739E+00
			-118.50		1.1744E+00
			-118.00		1.1748E+00
			-117.50		1.1754E+00
			-117.00		1.1760E+00
			-116.50		1.1766E+00
			-116.00		1.1772E+00
			-115.50		1.1777E+00
			-115.00		1.1783E+00
			-114.50		1.1787E+00
			-114.00		1.1791E+00
			-113.50		1.1795E+00
			-113.00		1.1799E+00
			-112.50		1.1806E+00
			-112.00		1.1813E+00
			-111.50		1.1819E+00
			-111.00		1.1825E+00
			-110.50		1.1830E+00
			-110.00		1.1834E+00
			-109.50		1.1838E+00
			-109.00		1.1842E+00
			-108.50		1.1845E+00
			-108.00		1.1848E+00
			-107.50		1.1850E+00
			-107.00		1.1852E+00
			-106.50		1.1855E+00
			-106.00		1.1858E+00
			-105.50		1.1862E+00
			-105.00		1.1867E+00
			-104.50		1.1873E+00
			-104.00		1.1878E+00
			-103.50		1.1881E+00
			-103.00		1.1883E+00
			-102.50		1.1884E+00
			-102.00		1.1885E+00
			-101.50		1.1887E+00
			-101.00		1.1889E+00
			-100.50		1.1891E+00
			-100.00		1.1893E+00
			-99.50		1.1895E+00
			-99.00		1.1897E+00
			-98.50		1.1901E+00
			-98.00		1.1904E+00
			-97.50		1.1908E+00
			-97.00		1.1911E+00
			-96.50		1.1913E+00
			-96.00		1.1916E+00
			-95.50		1.1916E+00
			-95.00		1.1916E+00
			-94.50		1.1916E+00
			-94.00		1.1915E+00
			-93.50		1.1916E+00
			-93.00		1.1916E+00
			-92.50		1.1916E+00
			-92.00		1.1916E+00
			-91.50		1.1916E+00
			-91.00		1.1915E+00
			-90.50		1.1916E+00
			-90.00		1.1918E+00
			-89.50		1.1923E+00
			-89.00		1.1927E+00
			-88.50		1.1928E+00
			-88.00		1.1930E+00
			-87.50		1.1931E+00
			-87.00		1.1932E+00
			-86.50		1.1933E+00
			-86.00		1.1934E+00
			-85.50		1.1936E+00
			-85.00		1.1938E+00
			-84.50		1.1939E+00
			-84.00		1.1941E+00
			-83.50		1.1940E+00
			-83.00		1.1939E+00
			-82.50		1.1937E+00
			-82.00		1.1935E+00
			-81.50		1.1934E+00
			-81.00		1.1933E+00
			-80.50		1.1932E+00
			-80.00		1.1932E+00
			-79.50		1.1930E+00
			-79.00		1.1927E+00
			-78.50		1.1925E+00
			-78.00		1.1924E+00
			-77.50		1.1925E+00
			-77.00		1.1925E+00
			-76.50		1.1928E+00
			-76.00		1.1931E+00
			-75.50		1.1935E+00
			-75.00		1.1939E+00
			-74.50		1.1942E+00
			-74.00		1.1945E+00
			-73.50		1.1947E+00
			-73.00		1.1949E+00
			-72.50		1.1951E+00
			-72.00		1.1953E+00
			-71.50		1.1953E+00
			-71.00		1.1953E+00
			-70.50		1.1952E+00
			-70.00		1.1950E+00
			-69.50		1.1948E+00
			-69.00		1.1946E+00
			-68.50		1.1946E+00
			-68.00		1.1945E+00
			-67.50		1.1943E+00
			-67.00		1.1941E+00
			-66.50		1.1939E+00
			-66.00		1.1937E+00
			-65.50		1.1936E+00
			-65.00		1.1935E+00
			-64.50		1.1935E+00
			-64.00		1.1935E+00
			-63.50		1.1935E+00
			-63.00		1.1935E+00
			-62.50		1.1936E+00
			-62.00		1.1937E+00
			-61.50		1.1937E+00
			-61.00		1.1937E+00
			-60.50		1.1934E+00
			-60.00		1.1932E+00
			-59.50		1.1928E+00
			-59.00		1.1925E+00
			-58.50		1.1923E+00
			-58.00		1.1920E+00
			-57.50		1.1920E+00
			-57.00		1.1920E+00
			-56.50		1.1921E+00
			-56.00		1.1922E+00
			-55.50		1.1923E+00
			-55.00		1.1924E+00
			-54.50		1.1923E+00
			-54.00		1.1923E+00
			-53.50		1.1922E+00
			-53.00		1.1921E+00
			-52.50		1.1919E+00
			-52.00		1.1917E+00
			-51.50		1.1914E+00
			-51.00		1.1911E+00
			-50.50		1.1909E+00
			-50.00		1.1906E+00
			-49.50		1.1906E+00
			-49.00		1.1905E+00
			-48.50		1.1908E+00
			-48.00		1.1910E+00
			-47.50		1.1912E+00
			-47.00		1.1915E+00
			-46.50		1.1912E+00
			-46.00		1.1909E+00
			-45.50		1.1904E+00
			-45.00		1.1898E+00
			-44.50		1.1894E+00
			-44.00		1.1889E+00
			-43.50		1.1885E+00
			-43.00		1.1881E+00
			-42.50		1.1877E+00
			-42.00		1.1874E+00
			-41.50		1.1869E+00
			-41.00		1.1865E+00
			-40.50		1.1858E+00
			-40.00		1.1851E+00
			-39.50		1.1845E+00
			-39.00		1.1839E+00
			-38.50		1.1836E+00
			-38.00		1.1832E+00
			-37.50		1.1830E+00
			-37.00		1.1827E+00
			-36.50		1.1824E+00
			-36.00		1.1820E+00
			-35.50		1.1815E+00
			-35.00		1.1809E+00
			-34.50		1.1805E+00
			-34.00		1.1802E+00
			-33.50		1.1799E+00
			-33.00		1.1797E+00
			-32.50		1.1796E+00
			-32.00		1.1795E+00
			-31.50		1.1794E+00
			-31.00		1.1793E+00
			-30.50		1.1791E+00
			-30.00		1.1790E+00
			-29.50		1.1786E+00
			-29.00		1.1781E+00
			-28.50		1.1776E+00
			-28.00		1.1770E+00
			-27.50		1.1769E+00
			-27.00		1.1767E+00
			-26.50		1.1769E+00
			-26.00		1.1772E+00
			-25.50		1.1775E+00
			-25.00		1.1779E+00
			-24.50		1.1781E+00
			-24.00		1.1784E+00
			-23.50		1.1783E+00
			-23.00		1.1783E+00
			-22.50		1.1781E+00
			-22.00		1.1780E+00
			-21.50		1.1779E+00
			-21.00		1.1779E+00
			-20.50		1.1777E+00
			-20.00		1.1775E+00
			-19.50		1.1772E+00
			-19.00		1.1769E+00
			-18.50		1.1767E+00
			-18.00		1.1765E+00
			-17.50		1.1764E+00
			-17.00		1.1763E+00
			-16.50		1.1761E+00
			-16.00		1.1759E+00
			-15.50		1.1757E+00
			-15.00		1.1754E+00
			-14.50		1.1750E+00
			-14.00		1.1746E+00
			-13.50		1.1740E+00
			-13.00		1.1734E+00
			-12.50		1.1729E+00
			-12.00		1.1723E+00
			-11.50		1.1720E+00
			-11.00		1.1717E+00
			-10.50		1.1716E+00
			-10.00		1.1716E+00
			-9.50		1.1715E+00
			-9.00		1.1714E+00
			-8.50		1.1710E+00
			-8.00		1.1707E+00
			-7.50		1.1702E+00
			-7.00		1.1697E+00
			-6.50		1.1694E+00
			-6.00		1.1691E+00
			-5.50		1.1691E+00
			-5.00		1.1691E+00
			-4.50		1.1690E+00
			-4.00		1.1689E+00
			-3.50		1.1686E+00
			-3.00		1.1683E+00
			-2.50		1.1681E+00
			-2.00		1.1678E+00
			-1.50		1.1676E+00
			-1.00		1.1674E+00
			-0.50		1.1672E+00
			0.00		1.1671E+00
			0.50		1.1672E+00
			1.00		1.1674E+00
			1.50		1.1676E+00
			2.00		1.1678E+00
			2.50		1.1681E+00
			3.00		1.1683E+00
			3.50		1.1686E+00
			4.00		1.1689E+00
			4.50		1.1690E+00
			5.00		1.1691E+00
			5.50		1.1691E+00
			6.00		1.1691E+00
			6.50		1.1694E+00
			7.00		1.1697E+00
			7.50		1.1702E+00
			8.00		1.1707E+00
			8.50		1.1710E+00
			9.00		1.1714E+00
			9.50		1.1715E+00
			10.00		1.1716E+00
			10.50		1.1716E+00
			11.00		1.1717E+00
			11.50		1.1720E+00
			12.00		1.1723E+00
			12.50		1.1729E+00
			13.00		1.1734E+00
			13.50		1.1740E+00
