BEGIN_SCAN_DATA
	FORMAT=CC-Export V1.9                  
	FILE_CREATION_DATE=26-Jul-2022 10:31:49
	LAST_MODIFIED=26-Jul-2022 10:31:49
	BEGIN_SCAN  1
		TASK_NAME=tba PDD Profiles
		PROGRAM=WaterTankScans
		COMMENT=PDD + 5x X
		MEAS_DATE=08-Feb-2021 09:45:25
		LINAC=TRUEBEAMSN4791
		MODALITY=X
		ISOCENTER=1000.00
		INPLANE_AXIS=Y
		CROSSPLANE_AXIS=X
		DEPTH_AXIS=Depth
		INPLANE_AXIS_DIR=TARGET_GUN
		CROSSPLANE_AXIS_DIR=LEFT_RIGHT
		DEPTH_AXIS_DIR=UP_DOWN
		ENERGY=6.00
		NOMINAL_DMAX=15.00
		SSD=900.00
		SCD=450.00
		WEDGE_ANGLE=0.00
		FIELD_INPLANE=80.00
		FIELD_CROSSPLANE=80.00
		FIELD_TYPE=RECTANGULAR
		GANTRY=0.00
		GANTRY_UPRIGHT_POSITION=0
		GANTRY_ROTATION=CW
		COLL_ANGLE=0.00
		COLL_OFFSET_INPLANE=0.00
		COLL_OFFSET_CROSSPLANE=0.00
		SCAN_DEVICE=BeamScan
		SCAN_DEVICE_SETUP=BARA_LEFT_RIGHT
		ELECTROMETER=BeamScan
		RANGE_FIELD=LOW
		RANGE_REFERENCE=MEDIUM
		DETECTOR=THIMBLE_CHAMBER
		DETECTOR_SUBCODE=SEMIFLEX
		DETECTOR_RADIUS=2.40
		DETECTOR_NAME=PTW 31021 Semiflex 3D (1)
		DETECTOR_SN=142316
		DETECTOR_CALIBRATION=588000000.00
		DETECTOR_IS_CALIBRATED=1
		DETECTOR_REFERENCE=THIMBLE_CHAMBER
		DETECTOR_REFERENCE_SUBCODE=SEMIFLEX
		DETECTOR_REFERENCE_RADIUS=2.75
		DETECTOR_REFERENCE_NAME=PTW 31010 Semiflex (1)
		DETECTOR_REFERENCE_SN=—
		DETECTOR_REFERENCE_IS_CALIBRATED=0
		DETECTOR_REFERENCE_CALIBRATION=303000000.00
		DETECTOR_HV=400.0
		DETECTOR_REFERENCE_HV=400.0
		DETECTOR_ORIENTATION=HORIZONTAL
		FILTER=FF
		SCAN_SPEED_PROFILE=12.50
		SCAN_PROF_SPEED_DEP=DEPTH
		SCAN_SPEED_PDD=12.50
		SCAN_PDD_SPEED_DEP=ENERGY
		DETECTOR_TYPE=T31021
		REF_FIELD_DEPTH=100.00
		REF_FIELD_DEFINED=ISOCENTER
		REF_FIELD_INPLANE=100.00
		REF_FIELD_CROSSPLANE=100.00
		REF_SCAN_POSITIONS=-85.00;-84.00;-83.00;-82.00;-81.00;-80.00;-79.00;-78.00;-77.00;-76.00;-75.00;-74.00;-73.00;-72.00;-71.00;-70.00;-69.00;-68.00;-67.00;-66.00;-65.00;-64.00;-63.00;-62.00;-61.00;-60.00;-59.00;-58.00;-57.00;-56.00;-55.00;-54.00;-53.00;-52.00;-51.00;-50.00;-49.00;-48.00;-47.00;-46.00;-45.00;-44.00;-43.00;-42.00;-41.00;-40.00;-39.00;-38.00;-37.00;-36.00;-35.00;-34.00;-33.00;-32.00;-31.00;-30.00;-29.00;-28.00;-27.00;-26.00;-25.00;-24.00;-23.00;-22.00;-21.00;-20.00;-19.00;-18.00;-17.00;-16.00;-15.00;-14.00;-13.00;-12.00;-11.00;-10.00;-9.00;-8.00;-7.00;-6.00;-5.00;-4.00;-3.00;-2.00;-1.00;0.00;1.00;2.00;3.00;4.00;5.00;6.00;7.00;8.00;9.00;10.00;11.00;12.00;13.00;14.00;15.00;16.00;17.00;18.00;19.00;20.00;21.00;22.00;23.00;24.00;25.00;26.00;27.00;28.00;29.00;30.00;31.00;32.00;33.00;34.00;35.00;36.00;37.00;38.00;39.00;40.00;41.00;42.00;43.00;44.00;45.00;46.00;47.00;48.00;49.00;50.00;51.00;52.00;53.00;54.00;55.00;56.00;57.00;58.00;59.00;60.00;61.00;62.00;63.00;64.00;65.00;66.00;67.00;68.00;69.00;70.00;71.00;72.00;73.00;74.00;75.00;76.00;77.00;78.00;79.00;80.00;81.00;82.00;83.00;84.00;85.00;
		REF_OVERSCAN_FACTOR=1.00
		SCAN_CURVETYPE=CROSSPLANE_PROFILE
		SCAN_DEPTH=15.00
		SCAN_OFFAXIS_INPLANE=0.00
		SCAN_OFFAXIS_CROSSPLANE=0.00
		SCAN_ANGLE=0.00
		SCAN_DIAGONAL=NOT_DIAGONAL
		SCAN_DIRECTION=POSITIVE
		MEAS_MEDIUM=WATER
		MEAS_PRESET=MEAS_CONTINUOUS_REFERENCE_SCAN
		MEAS_TIME=0.080
		MEAS_UNIT=A.U.
		INCLINATION_ANGLE=0.00
		PRESSURE=1013.25
		TEMPERATURE=20.00
		NORM_TEMPERATURE=20.00
		CORRECTION_FACTOR=1.0000
		EXPECTED_MAX_DOSE_RATE=3.00
		EPOM_DEPTH_SHIFT=0.2
		EPOM_MODE=SHIFT_PROTOCOL
		CORRECTIONS=SMOOTHED_CORR;CAX_CORR;SYMMETRY_CORR;INTERPOLATED_CORR;
		BEGIN_DATA
			-69.00		28.407E-03
			-68.50		28.972E-03
			-68.00		29.538E-03
			-67.50		29.897E-03
			-67.00		30.257E-03
			-66.50		30.624E-03
			-66.00		30.991E-03
			-65.50		31.678E-03
			-65.00		32.365E-03
			-64.50		32.901E-03
			-64.00		33.437E-03
			-63.50		33.945E-03
			-63.00		34.453E-03
			-62.50		35.315E-03
			-62.00		36.177E-03
			-61.50		36.871E-03
			-61.00		37.565E-03
			-60.50		38.087E-03
			-60.00		38.608E-03
			-59.50		39.385E-03
			-59.00		40.162E-03
			-58.50		41.124E-03
			-58.00		42.085E-03
			-57.50		42.979E-03
			-57.00		43.873E-03
			-56.50		44.830E-03
			-56.00		45.787E-03
			-55.50		46.726E-03
			-55.00		47.664E-03
			-54.50		48.813E-03
			-54.00		49.961E-03
			-53.50		51.257E-03
			-53.00		52.553E-03
			-52.50		53.939E-03
			-52.00		55.326E-03
			-51.50		56.627E-03
			-51.00		57.928E-03
			-50.50		59.420E-03
			-50.00		60.913E-03
			-49.50		62.553E-03
			-49.00		64.193E-03
			-48.50		66.446E-03
			-48.00		68.700E-03
			-47.50		71.098E-03
			-47.00		73.495E-03
			-46.50		76.487E-03
			-46.00		79.479E-03
			-45.50		83.337E-03
			-45.00		87.195E-03
			-44.50		92.398E-03
			-44.00		97.601E-03
			-43.50		105.23E-03
			-43.00		112.85E-03
			-42.50		124.35E-03
			-42.00		135.85E-03
			-41.50		155.18E-03
			-41.00		174.50E-03
			-40.50		209.82E-03
			-40.00		245.14E-03
			-39.50		308.78E-03
			-39.00		372.42E-03
			-38.50		467.39E-03
			-38.00		562.36E-03
			-37.50		680.88E-03
			-37.00		799.41E-03
			-36.50		926.81E-03
			-36.00		1.0542E+00
			-35.50		1.1720E+00
			-35.00		1.2898E+00
			-34.50		1.3849E+00
			-34.00		1.4799E+00
			-33.50		1.5431E+00
			-33.00		1.6063E+00
			-32.50		1.6405E+00
			-32.00		1.6747E+00
			-31.50		1.6942E+00
			-31.00		1.7138E+00
			-30.50		1.7236E+00
			-30.00		1.7334E+00
			-29.50		1.7398E+00
			-29.00		1.7462E+00
			-28.50		1.7513E+00
			-28.00		1.7563E+00
			-27.50		1.7603E+00
			-27.00		1.7644E+00
			-26.50		1.7674E+00
			-26.00		1.7704E+00
			-25.50		1.7726E+00
			-25.00		1.7748E+00
			-24.50		1.7766E+00
			-24.00		1.7783E+00
			-23.50		1.7796E+00
			-23.00		1.7810E+00
			-22.50		1.7818E+00
			-22.00		1.7826E+00
			-21.50		1.7832E+00
			-21.00		1.7838E+00
			-20.50		1.7844E+00
			-20.00		1.7850E+00
			-19.50		1.7858E+00
			-19.00		1.7866E+00
			-18.50		1.7872E+00
			-18.00		1.7877E+00
			-17.50		1.7879E+00
			-17.00		1.7881E+00
			-16.50		1.7881E+00
			-16.00		1.7881E+00
			-15.50		1.7880E+00
			-15.00		1.7878E+00
			-14.50		1.7878E+00
			-14.00		1.7877E+00
			-13.50		1.7877E+00
			-13.00		1.7877E+00
			-12.50		1.7876E+00
			-12.00		1.7875E+00
			-11.50		1.7873E+00
			-11.00		1.7870E+00
			-10.50		1.7866E+00
			-10.00		1.7863E+00
			-9.50		1.7861E+00
			-9.00		1.7859E+00
			-8.50		1.7859E+00
			-8.00		1.7859E+00
			-7.50		1.7858E+00
			-7.00		1.7857E+00
			-6.50		1.7853E+00
			-6.00		1.7850E+00
			-5.50		1.7844E+00
			-5.00		1.7838E+00
			-4.50		1.7831E+00
			-4.00		1.7825E+00
			-3.50		1.7820E+00
			-3.00		1.7815E+00
			-2.50		1.7815E+00
			-2.00		1.7815E+00
			-1.50		1.7818E+00
			-1.00		1.7822E+00
			-0.50		1.7824E+00
			0.00		1.7827E+00
			0.50		1.7824E+00
			1.00		1.7822E+00
			1.50		1.7818E+00
			2.00		1.7815E+00
			2.50		1.7815E+00
			3.00		1.7815E+00
			3.50		1.7820E+00
			4.00		1.7825E+00
			4.50		1.7831E+00
			5.00		1.7838E+00
			5.50		1.7844E+00
			6.00		1.7850E+00
			6.50		1.7853E+00
			7.00		1.7857E+00
			7.50		1.7858E+00
			8.00		1.7859E+00
			8.50		1.7859E+00
			9.00		1.7859E+00
			9.50		1.7861E+00
			10.00		1.7863E+00
			10.50		1.7866E+00
			11.00		1.7870E+00
			11.50		1.7873E+00
			12.00		1.7875E+00
			12.50		1.7876E+00
			13.00		1.7877E+00
			13.50		1.7877E+00
			14.00		1.7877E+00
			14.50		1.7878E+00
			15.00		1.7878E+00
			15.50		1.7880E+00
			16.00		1.7881E+00
			16.50		1.7881E+00
			17.00		1.7881E+00
			17.50		1.7879E+00
			18.00		1.7877E+00
			18.50		1.7872E+00
			19.00		1.7866E+00
			19.50		1.7858E+00
			20.00		1.7850E+00
			20.50		1.7844E+00
			21.00		1.7838E+00
			21.50		1.7832E+00
			22.00		1.7826E+00
			22.50		1.7818E+00
			23.00		1.7810E+00
			23.50		1.7796E+00
			24.00		1.7783E+00
			24.50		1.7766E+00
			25.00		1.7748E+00
			25.50		1.7726E+00
			26.00		1.7704E+00
			26.50		1.7674E+00
			27.00		1.7644E+00
			27.50		1.7603E+00
			28.00		1.7563E+00
			28.50		1.7513E+00
			29.00		1.7462E+00
			29.50		1.7398E+00
			30.00		1.7334E+00
			30.50		1.7236E+00
			31.00		1.7138E+00
			31.50		1.6942E+00
			32.00		1.6747E+00
			32.50		1.6405E+00
			33.00		1.6063E+00
			33.50		1.5431E+00
			34.00		1.4799E+00
			34.50		1.3849E+00
			35.00		1.2898E+00
			35.50		1.1720E+00
			36.00		1.0542E+00
			36.50		926.81E-03
			37.00		799.41E-03
			37.50		680.88E-03
			38.00		562.36E-03
			38.50		467.39E-03
			39.00		372.42E-03
			39.50		308.78E-03
			40.00		245.14E-03
			40.50		209.82E-03
			41.00		174.50E-03
			41.50		155.18E-03
			42.00		135.85E-03
			42.50		124.35E-03
			43.00		112.85E-03
			43.50		105.23E-03
			44.00		97.601E-03
			44.50		92.398E-03
			45.00		87.195E-03
			45.50		83.337E-03
			46.00		79.479E-03
			46.50		76.487E-03
			47.00		73.495E-03
			47.50		71.098E-03
			48.00		68.700E-03
			48.50		66.446E-03
			49.00		64.193E-03
			49.50		62.553E-03
			50.00		60.913E-03
			50.50		59.420E-03
			51.00		57.928E-03
			51.50		56.627E-03
			52.00		55.326E-03
			52.50		53.939E-03
			53.00		52.553E-03
			53.50		51.257E-03
			54.00		49.961E-03
			54.50		48.813E-03
			55.00		47.664E-03
			55.50		46.726E-03
			56.00		45.787E-03
			56.50		44.830E-03
			57.00		43.873E-03
			57.50		42.979E-03
			58.00		42.085E-03
			58.50		41.124E-03
			59.00		40.162E-03
			59.50		39.385E-03
			60.00		38.608E-03
			60.50		38.087E-03
			61.00		37.565E-03
			61.50		36.871E-03
			62.00		36.177E-03
			62.50		35.315E-03
			63.00		34.453E-03
			63.50		33.945E-03
			64.00		33.437E-03
			64.50		32.901E-03
			65.00		32.365E-03
			65.50		31.678E-03
			66.00		30.991E-03
			66.50		30.624E-03
			67.00		30.257E-03
			67.50		29.897E-03
			68.00		29.538E-03
			68.50		28.972E-03
			69.00		28.407E-03
		END_DATA
	END_SCAN  1
	BEGIN_SCAN  2
		TASK_NAME=tba PDD Profiles
		PROGRAM=WaterTankScans
		COMMENT=PDD + 5x X
		MEAS_DATE=08-Feb-2021 09:45:40
		LINAC=TRUEBEAMSN4791
		MODALITY=X
		ISOCENTER=1000.00
		INPLANE_AXIS=Y
		CROSSPLANE_AXIS=X
		DEPTH_AXIS=Depth
		INPLANE_AXIS_DIR=TARGET_GUN
		CROSSPLANE_AXIS_DIR=LEFT_RIGHT
		DEPTH_AXIS_DIR=UP_DOWN
		ENERGY=6.00
		NOMINAL_DMAX=15.00
		SSD=900.00
		SCD=450.00
		WEDGE_ANGLE=0.00
		FIELD_INPLANE=80.00
		FIELD_CROSSPLANE=80.00
		FIELD_TYPE=RECTANGULAR
		GANTRY=0.00
		GANTRY_UPRIGHT_POSITION=0
		GANTRY_ROTATION=CW
		COLL_ANGLE=0.00
		COLL_OFFSET_INPLANE=0.00
		COLL_OFFSET_CROSSPLANE=0.00
		SCAN_DEVICE=BeamScan
		SCAN_DEVICE_SETUP=BARA_LEFT_RIGHT
		ELECTROMETER=BeamScan
		RANGE_FIELD=LOW
		RANGE_REFERENCE=MEDIUM
		DETECTOR=THIMBLE_CHAMBER
		DETECTOR_SUBCODE=SEMIFLEX
		DETECTOR_RADIUS=2.40
		DETECTOR_NAME=PTW 31021 Semiflex 3D (1)
		DETECTOR_SN=142316
		DETECTOR_CALIBRATION=588000000.00
		DETECTOR_IS_CALIBRATED=1
		DETECTOR_REFERENCE=THIMBLE_CHAMBER
		DETECTOR_REFERENCE_SUBCODE=SEMIFLEX
		DETECTOR_REFERENCE_RADIUS=2.75
		DETECTOR_REFERENCE_NAME=PTW 31010 Semiflex (1)
		DETECTOR_REFERENCE_SN=—
		DETECTOR_REFERENCE_IS_CALIBRATED=0
		DETECTOR_REFERENCE_CALIBRATION=303000000.00
		DETECTOR_HV=400.0
		DETECTOR_REFERENCE_HV=400.0
		DETECTOR_ORIENTATION=HORIZONTAL
		FILTER=FF
		SCAN_SPEED_PROFILE=12.50
		SCAN_PROF_SPEED_DEP=DEPTH
		SCAN_SPEED_PDD=12.50
		SCAN_PDD_SPEED_DEP=ENERGY
		DETECTOR_TYPE=T31021
		REF_FIELD_DEPTH=100.00
		REF_FIELD_DEFINED=ISOCENTER
		REF_FIELD_INPLANE=100.00
		REF_FIELD_CROSSPLANE=100.00
		REF_SCAN_POSITIONS=-85.00;-84.00;-83.00;-82.00;-81.00;-80.00;-79.00;-78.00;-77.00;-76.00;-75.00;-74.00;-73.00;-72.00;-71.00;-70.00;-69.00;-68.00;-67.00;-66.00;-65.00;-64.00;-63.00;-62.00;-61.00;-60.00;-59.00;-58.00;-57.00;-56.00;-55.00;-54.00;-53.00;-52.00;-51.00;-50.00;-49.00;-48.00;-47.00;-46.00;-45.00;-44.00;-43.00;-42.00;-41.00;-40.00;-39.00;-38.00;-37.00;-36.00;-35.00;-34.00;-33.00;-32.00;-31.00;-30.00;-29.00;-28.00;-27.00;-26.00;-25.00;-24.00;-23.00;-22.00;-21.00;-20.00;-19.00;-18.00;-17.00;-16.00;-15.00;-14.00;-13.00;-12.00;-11.00;-10.00;-9.00;-8.00;-7.00;-6.00;-5.00;-4.00;-3.00;-2.00;-1.00;0.00;1.00;2.00;3.00;4.00;5.00;6.00;7.00;8.00;9.00;10.00;11.00;12.00;13.00;14.00;15.00;16.00;17.00;18.00;19.00;20.00;21.00;22.00;23.00;24.00;25.00;26.00;27.00;28.00;29.00;30.00;31.00;32.00;33.00;34.00;35.00;36.00;37.00;38.00;39.00;40.00;41.00;42.00;43.00;44.00;45.00;46.00;47.00;48.00;49.00;50.00;51.00;52.00;53.00;54.00;55.00;56.00;57.00;58.00;59.00;60.00;61.00;62.00;63.00;64.00;65.00;66.00;67.00;68.00;69.00;70.00;71.00;72.00;73.00;74.00;75.00;76.00;77.00;78.00;79.00;80.00;81.00;82.00;83.00;84.00;85.00;
		REF_OVERSCAN_FACTOR=1.00
		SCAN_CURVETYPE=CROSSPLANE_PROFILE
		SCAN_DEPTH=50.00
		SCAN_OFFAXIS_INPLANE=0.00
		SCAN_OFFAXIS_CROSSPLANE=0.00
		SCAN_ANGLE=0.00
		SCAN_DIAGONAL=NOT_DIAGONAL
		SCAN_DIRECTION=NEGATIVE
		MEAS_MEDIUM=WATER
		MEAS_PRESET=MEAS_CONTINUOUS_REFERENCE_SCAN
		MEAS_TIME=0.080
		MEAS_UNIT=A.U.
		INCLINATION_ANGLE=0.00
		PRESSURE=1013.25
		TEMPERATURE=20.00
		NORM_TEMPERATURE=20.00
		CORRECTION_FACTOR=1.0000
		EXPECTED_MAX_DOSE_RATE=3.00
		EPOM_DEPTH_SHIFT=0.2
		EPOM_MODE=SHIFT_PROTOCOL
		CORRECTIONS=SMOOTHED_CORR;CAX_CORR;SYMMETRY_CORR;INTERPOLATED_CORR;
		BEGIN_DATA
			-72.00		32.400E-03
			-71.50		32.921E-03
			-71.00		33.441E-03
			-70.50		33.951E-03
			-70.00		34.460E-03
			-69.50		35.254E-03
			-69.00		36.048E-03
			-68.50		36.588E-03
			-68.00		37.129E-03
			-67.50		37.840E-03
			-67.00		38.550E-03
			-66.50		39.102E-03
			-66.00		39.653E-03
			-65.50		40.624E-03
			-65.00		41.596E-03
			-64.50		42.279E-03
			-64.00		42.963E-03
			-63.50		43.707E-03
			-63.00		44.451E-03
			-62.50		45.442E-03
			-62.00		46.434E-03
			-61.50		47.315E-03
			-61.00		48.196E-03
			-60.50		49.462E-03
			-60.00		50.728E-03
			-59.50		51.589E-03
			-59.00		52.450E-03
			-58.50		54.001E-03
			-58.00		55.551E-03
			-57.50		56.567E-03
			-57.00		57.583E-03
			-56.50		59.036E-03
			-56.00		60.488E-03
			-55.50		61.908E-03
			-55.00		63.329E-03
			-54.50		64.900E-03
			-54.00		66.471E-03
			-53.50		68.035E-03
			-53.00		69.599E-03
			-52.50		71.663E-03
			-52.00		73.727E-03
			-51.50		75.774E-03
			-51.00		77.821E-03
			-50.50		80.030E-03
			-50.00		82.239E-03
			-49.50		84.780E-03
			-49.00		87.321E-03
			-48.50		90.244E-03
			-48.00		93.167E-03
			-47.50		97.094E-03
			-47.00		101.02E-03
			-46.50		105.49E-03
			-46.00		109.96E-03
			-45.50		115.95E-03
			-45.00		121.95E-03
			-44.50		130.47E-03
			-44.00		139.00E-03
			-43.50		151.96E-03
			-43.00		164.91E-03
			-42.50		186.21E-03
			-42.00		207.52E-03
			-41.50		244.94E-03
			-41.00		282.37E-03
			-40.50		344.09E-03
			-40.00		405.82E-03
			-39.50		489.20E-03
			-39.00		572.58E-03
			-38.50		669.34E-03
			-38.00		766.10E-03
			-37.50		865.13E-03
			-37.00		964.15E-03
			-36.50		1.0508E+00
			-36.00		1.1374E+00
			-35.50		1.2040E+00
			-35.00		1.2706E+00
			-34.50		1.3119E+00
			-34.00		1.3533E+00
			-33.50		1.3759E+00
			-33.00		1.3985E+00
			-32.50		1.4125E+00
			-32.00		1.4266E+00
			-31.50		1.4355E+00
			-31.00		1.4445E+00
			-30.50		1.4509E+00
			-30.00		1.4573E+00
			-29.50		1.4622E+00
			-29.00		1.4671E+00
			-28.50		1.4710E+00
			-28.00		1.4748E+00
			-27.50		1.4779E+00
			-27.00		1.4811E+00
			-26.50		1.4836E+00
			-26.00		1.4862E+00
			-25.50		1.4880E+00
			-25.00		1.4899E+00
			-24.50		1.4913E+00
			-24.00		1.4926E+00
			-23.50		1.4937E+00
			-23.00		1.4948E+00
			-22.50		1.4959E+00
			-22.00		1.4971E+00
			-21.50		1.4982E+00
			-21.00		1.4993E+00
			-20.50		1.5003E+00
			-20.00		1.5013E+00
			-19.50		1.5023E+00
			-19.00		1.5033E+00
			-18.50		1.5044E+00
			-18.00		1.5056E+00
			-17.50		1.5066E+00
			-17.00		1.5076E+00
			-16.50		1.5080E+00
			-16.00		1.5085E+00
			-15.50		1.5087E+00
			-15.00		1.5089E+00
			-14.50		1.5093E+00
			-14.00		1.5096E+00
			-13.50		1.5101E+00
			-13.00		1.5106E+00
			-12.50		1.5108E+00
			-12.00		1.5110E+00
			-11.50		1.5107E+00
			-11.00		1.5103E+00
			-10.50		1.5099E+00
			-10.00		1.5094E+00
			-9.50		1.5092E+00
			-9.00		1.5090E+00
			-8.50		1.5090E+00
			-8.00		1.5091E+00
			-7.50		1.5090E+00
			-7.00		1.5089E+00
			-6.50		1.5086E+00
			-6.00		1.5082E+00
			-5.50		1.5082E+00
			-5.00		1.5082E+00
			-4.50		1.5084E+00
			-4.00		1.5086E+00
			-3.50		1.5087E+00
			-3.00		1.5088E+00
			-2.50		1.5089E+00
			-2.00		1.5089E+00
			-1.50		1.5089E+00
			-1.00		1.5089E+00
			-0.50		1.5089E+00
			0.00		1.5090E+00
			0.50		1.5089E+00
			1.00		1.5089E+00
			1.50		1.5089E+00
			2.00		1.5089E+00
			2.50		1.5089E+00
			3.00		1.5088E+00
			3.50		1.5087E+00
			4.00		1.5086E+00
			4.50		1.5084E+00
			5.00		1.5082E+00
			5.50		1.5082E+00
			6.00		1.5082E+00
			6.50		1.5086E+00
			7.00		1.5089E+00
			7.50		1.5090E+00
			8.00		1.5091E+00
			8.50		1.5090E+00
			9.00		1.5090E+00
			9.50		1.5092E+00
			10.00		1.5094E+00
			10.50		1.5099E+00
			11.00		1.5103E+00
			11.50		1.5107E+00
			12.00		1.5110E+00
			12.50		1.5108E+00
			13.00		1.5106E+00
			13.50		1.5101E+00
			14.00		1.5096E+00
			14.50		1.5093E+00
			15.00		1.5089E+00
			15.50		1.5087E+00
			16.00		1.5085E+00
			16.50		1.5080E+00
			17.00		1.5076E+00
			17.50		1.5066E+00
			18.00		1.5056E+00
			18.50		1.5044E+00
			19.00		1.5033E+00
			19.50		1.5023E+00
			20.00		1.5013E+00
			20.50		1.5003E+00
			21.00		1.4993E+00
			21.50		1.4982E+00
			22.00		1.4971E+00
			22.50		1.4959E+00
			23.00		1.4948E+00
			23.50		1.4937E+00
			24.00		1.4926E+00
			24.50		1.4913E+00
			25.00		1.4899E+00
			25.50		1.4880E+00
			26.00		1.4862E+00
			26.50		1.4836E+00
			27.00		1.4811E+00
			27.50		1.4779E+00
			28.00		1.4748E+00
			28.50		1.4710E+00
			29.00		1.4671E+00
			29.50		1.4622E+00
			30.00		1.4573E+00
			30.50		1.4509E+00
			31.00		1.4445E+00
			31.50		1.4355E+00
			32.00		1.4266E+00
			32.50		1.4125E+00
			33.00		1.3985E+00
			33.50		1.3759E+00
			34.00		1.3533E+00
			34.50		1.3119E+00
			35.00		1.2706E+00
			35.50		1.2040E+00
			36.00		1.1374E+00
			36.50		1.0508E+00
			37.00		964.15E-03
			37.50		865.13E-03
			38.00		766.10E-03
			38.50		669.34E-03
			39.00		572.58E-03
			39.50		489.20E-03
			40.00		405.82E-03
			40.50		344.09E-03
			41.00		282.37E-03
			41.50		244.94E-03
			42.00		207.52E-03
			42.50		186.21E-03
			43.00		164.91E-03
			43.50		151.96E-03
			44.00		139.00E-03
			44.50		130.47E-03
			45.00		121.95E-03
			45.50		115.95E-03
			46.00		109.96E-03
			46.50		105.49E-03
			47.00		101.02E-03
			47.50		97.094E-03
			48.00		93.167E-03
			48.50		90.244E-03
			49.00		87.321E-03
			49.50		84.780E-03
			50.00		82.239E-03
			50.50		80.030E-03
			51.00		77.821E-03
			51.50		75.774E-03
			52.00		73.727E-03
			52.50		71.663E-03
			53.00		69.599E-03
			53.50		68.035E-03
			54.00		66.471E-03
			54.50		64.900E-03
			55.00		63.329E-03
			55.50		61.908E-03
			56.00		60.488E-03
			56.50		59.036E-03
			57.00		57.583E-03
			57.50		56.567E-03
			58.00		55.551E-03
			58.50		54.001E-03
			59.00		52.450E-03
			59.50		51.589E-03
			60.00		50.728E-03
			60.50		49.462E-03
			61.00		48.196E-03
			61.50		47.315E-03
			62.00		46.434E-03
			62.50		45.442E-03
			63.00		44.451E-03
			63.50		43.707E-03
			64.00		42.963E-03
			64.50		42.279E-03
			65.00		41.596E-03
			65.50		40.624E-03
			66.00		39.653E-03
			66.50		39.102E-03
			67.00		38.550E-03
			67.50		37.840E-03
			68.00		37.129E-03
			68.50		36.588E-03
			69.00		36.048E-03
			69.50		35.254E-03
			70.00		34.460E-03
			70.50		33.951E-03
			71.00		33.441E-03
			71.50		32.921E-03
			72.00		32.400E-03
		END_DATA
	END_SCAN  2
	BEGIN_SCAN  3
		TASK_NAME=tba PDD Profiles
		PROGRAM=WaterTankScans
		COMMENT=PDD + 5x X
		MEAS_DATE=08-Feb-2021 09:45:55
		LINAC=TRUEBEAMSN4791
		MODALITY=X
		ISOCENTER=1000.00
		INPLANE_AXIS=Y
		CROSSPLANE_AXIS=X
		DEPTH_AXIS=Depth
		INPLANE_AXIS_DIR=TARGET_GUN
		CROSSPLANE_AXIS_DIR=LEFT_RIGHT
		DEPTH_AXIS_DIR=UP_DOWN
		ENERGY=6.00
		NOMINAL_DMAX=15.00
		SSD=900.00
		SCD=450.00
		WEDGE_ANGLE=0.00
		FIELD_INPLANE=80.00
		FIELD_CROSSPLANE=80.00
		FIELD_TYPE=RECTANGULAR
		GANTRY=0.00
		GANTRY_UPRIGHT_POSITION=0
		GANTRY_ROTATION=CW
		COLL_ANGLE=0.00
		COLL_OFFSET_INPLANE=0.00
		COLL_OFFSET_CROSSPLANE=0.00
		SCAN_DEVICE=BeamScan
		SCAN_DEVICE_SETUP=BARA_LEFT_RIGHT
		ELECTROMETER=BeamScan
		RANGE_FIELD=LOW
		RANGE_REFERENCE=MEDIUM
		DETECTOR=THIMBLE_CHAMBER
		DETECTOR_SUBCODE=SEMIFLEX
		DETECTOR_RADIUS=2.40
		DETECTOR_NAME=PTW 31021 Semiflex 3D (1)
		DETECTOR_SN=142316
		DETECTOR_CALIBRATION=588000000.00
		DETECTOR_IS_CALIBRATED=1
		DETECTOR_REFERENCE=THIMBLE_CHAMBER
		DETECTOR_REFERENCE_SUBCODE=SEMIFLEX
		DETECTOR_REFERENCE_RADIUS=2.75
		DETECTOR_REFERENCE_NAME=PTW 31010 Semiflex (1)
		DETECTOR_REFERENCE_SN=—
		DETECTOR_REFERENCE_IS_CALIBRATED=0
		DETECTOR_REFERENCE_CALIBRATION=303000000.00
		DETECTOR_HV=400.0
		DETECTOR_REFERENCE_HV=400.0
		DETECTOR_ORIENTATION=HORIZONTAL
		FILTER=FF
		SCAN_SPEED_PROFILE=12.50
		SCAN_PROF_SPEED_DEP=DEPTH
		SCAN_SPEED_PDD=12.50
		SCAN_PDD_SPEED_DEP=ENERGY
		DETECTOR_TYPE=T31021
		REF_FIELD_DEPTH=100.00
		REF_FIELD_DEFINED=ISOCENTER
		REF_FIELD_INPLANE=100.00
		REF_FIELD_CROSSPLANE=100.00
		REF_SCAN_POSITIONS=-85.00;-84.00;-83.00;-82.00;-81.00;-80.00;-79.00;-78.00;-77.00;-76.00;-75.00;-74.00;-73.00;-72.00;-71.00;-70.00;-69.00;-68.00;-67.00;-66.00;-65.00;-64.00;-63.00;-62.00;-61.00;-60.00;-59.00;-58.00;-57.00;-56.00;-55.00;-54.00;-53.00;-52.00;-51.00;-50.00;-49.00;-48.00;-47.00;-46.00;-45.00;-44.00;-43.00;-42.00;-41.00;-40.00;-39.00;-38.00;-37.00;-36.00;-35.00;-34.00;-33.00;-32.00;-31.00;-30.00;-29.00;-28.00;-27.00;-26.00;-25.00;-24.00;-23.00;-22.00;-21.00;-20.00;-19.00;-18.00;-17.00;-16.00;-15.00;-14.00;-13.00;-12.00;-11.00;-10.00;-9.00;-8.00;-7.00;-6.00;-5.00;-4.00;-3.00;-2.00;-1.00;0.00;1.00;2.00;3.00;4.00;5.00;6.00;7.00;8.00;9.00;10.00;11.00;12.00;13.00;14.00;15.00;16.00;17.00;18.00;19.00;20.00;21.00;22.00;23.00;24.00;25.00;26.00;27.00;28.00;29.00;30.00;31.00;32.00;33.00;34.00;35.00;36.00;37.00;38.00;39.00;40.00;41.00;42.00;43.00;44.00;45.00;46.00;47.00;48.00;49.00;50.00;51.00;52.00;53.00;54.00;55.00;56.00;57.00;58.00;59.00;60.00;61.00;62.00;63.00;64.00;65.00;66.00;67.00;68.00;69.00;70.00;71.00;72.00;73.00;74.00;75.00;76.00;77.00;78.00;79.00;80.00;81.00;82.00;83.00;84.00;85.00;
		REF_OVERSCAN_FACTOR=1.00
		SCAN_CURVETYPE=CROSSPLANE_PROFILE
		SCAN_DEPTH=100.00
		SCAN_OFFAXIS_INPLANE=0.00
		SCAN_OFFAXIS_CROSSPLANE=0.00
		SCAN_ANGLE=0.00
		SCAN_DIAGONAL=NOT_DIAGONAL
		SCAN_DIRECTION=POSITIVE
		MEAS_MEDIUM=WATER
		MEAS_PRESET=MEAS_CONTINUOUS_REFERENCE_SCAN
		MEAS_TIME=0.080
		MEAS_UNIT=A.U.
		INCLINATION_ANGLE=0.00
		PRESSURE=1013.25
		TEMPERATURE=20.00
		NORM_TEMPERATURE=20.00
		CORRECTION_FACTOR=1.0000
		EXPECTED_MAX_DOSE_RATE=3.00
		EPOM_DEPTH_SHIFT=0.2
		EPOM_MODE=SHIFT_PROTOCOL
		CORRECTIONS=SMOOTHED_CORR;CAX_CORR;SYMMETRY_CORR;INTERPOLATED_CORR;
		BEGIN_DATA
			-75.00		38.191E-03
			-74.50		38.525E-03
			-74.00		38.860E-03
			-73.50		39.533E-03
			-73.00		40.207E-03
			-72.50		40.920E-03
			-72.00		41.634E-03
			-71.50		42.234E-03
			-71.00		42.833E-03
			-70.50		43.634E-03
			-70.00		44.435E-03
			-69.50		45.407E-03
			-69.00		46.379E-03
			-68.50		47.159E-03
			-68.00		47.938E-03
			-67.50		48.491E-03
			-67.00		49.044E-03
			-66.50		50.016E-03
			-66.00		50.987E-03
			-65.50		51.996E-03
			-65.00		53.004E-03
			-64.50		53.952E-03
			-64.00		54.900E-03
			-63.50		55.879E-03
			-63.00		56.857E-03
			-62.50		57.869E-03
			-62.00		58.881E-03
			-61.50		60.052E-03
			-61.00		61.223E-03
			-60.50		62.466E-03
			-60.00		63.708E-03
			-59.50		64.943E-03
			-59.00		66.178E-03
			-58.50		67.438E-03
			-58.00		68.698E-03
			-57.50		70.278E-03
			-57.00		71.858E-03
			-56.50		73.391E-03
			-56.00		74.924E-03
			-55.50		76.436E-03
			-55.00		77.948E-03
			-54.50		79.384E-03
			-54.00		80.821E-03
			-53.50		82.704E-03
			-53.00		84.587E-03
			-52.50		86.743E-03
			-52.00		88.898E-03
			-51.50		91.053E-03
			-51.00		93.208E-03
			-50.50		96.062E-03
			-50.00		98.917E-03
			-49.50		102.10E-03
			-49.00		105.29E-03
			-48.50		109.05E-03
			-48.00		112.82E-03
			-47.50		117.74E-03
			-47.00		122.66E-03
			-46.50		129.48E-03
			-46.00		136.31E-03
			-45.50		146.03E-03
			-45.00		155.74E-03
			-44.50		171.88E-03
			-44.00		188.01E-03
			-43.50		215.08E-03
			-43.00		242.14E-03
			-42.50		285.46E-03
			-42.00		328.78E-03
			-41.50		387.14E-03
			-41.00		445.51E-03
			-40.50		512.66E-03
			-40.00		579.80E-03
			-39.50		649.02E-03
			-39.00		718.25E-03
			-38.50		779.21E-03
			-38.00		840.18E-03
			-37.50		887.42E-03
			-37.00		934.66E-03
			-36.50		964.88E-03
			-36.00		995.11E-03
			-35.50		1.0133E+00
			-35.00		1.0315E+00
			-34.50		1.0424E+00
			-34.00		1.0532E+00
			-33.50		1.0610E+00
			-33.00		1.0689E+00
			-32.50		1.0737E+00
			-32.00		1.0784E+00
			-31.50		1.0821E+00
			-31.00		1.0858E+00
			-30.50		1.0891E+00
			-30.00		1.0923E+00
			-29.50		1.0950E+00
			-29.00		1.0977E+00
			-28.50		1.1000E+00
			-28.00		1.1022E+00
			-27.50		1.1042E+00
			-27.00		1.1061E+00
			-26.50		1.1079E+00
			-26.00		1.1097E+00
			-25.50		1.1114E+00
			-25.00		1.1130E+00
			-24.50		1.1144E+00
			-24.00		1.1158E+00
			-23.50		1.1166E+00
			-23.00		1.1174E+00
			-22.50		1.1182E+00
			-22.00		1.1190E+00
			-21.50		1.1200E+00
			-21.00		1.1209E+00
			-20.50		1.1221E+00
			-20.00		1.1232E+00
			-19.50		1.1244E+00
			-19.00		1.1256E+00
			-18.50		1.1264E+00
			-18.00		1.1272E+00
			-17.50		1.1277E+00
			-17.00		1.1281E+00
			-16.50		1.1285E+00
			-16.00		1.1288E+00
			-15.50		1.1292E+00
			-15.00		1.1296E+00
			-14.50		1.1300E+00
			-14.00		1.1305E+00
			-13.50		1.1309E+00
			-13.00		1.1313E+00
			-12.50		1.1317E+00
			-12.00		1.1322E+00
			-11.50		1.1326E+00
			-11.00		1.1329E+00
			-10.50		1.1330E+00
			-10.00		1.1330E+00
			-9.50		1.1330E+00
			-9.00		1.1330E+00
			-8.50		1.1331E+00
			-8.00		1.1333E+00
			-7.50		1.1335E+00
			-7.00		1.1336E+00
			-6.50		1.1335E+00
			-6.00		1.1333E+00
			-5.50		1.1330E+00
			-5.00		1.1327E+00
			-4.50		1.1324E+00
			-4.00		1.1322E+00
			-3.50		1.1323E+00
			-3.00		1.1323E+00
			-2.50		1.1327E+00
			-2.00		1.1330E+00
			-1.50		1.1332E+00
			-1.00		1.1334E+00
			-0.50		1.1335E+00
			0.00		1.1336E+00
			0.50		1.1335E+00
			1.00		1.1334E+00
			1.50		1.1332E+00
			2.00		1.1330E+00
			2.50		1.1327E+00
			3.00		1.1323E+00
			3.50		1.1323E+00
			4.00		1.1322E+00
			4.50		1.1324E+00
			5.00		1.1327E+00
			5.50		1.1330E+00
			6.00		1.1333E+00
			6.50		1.1335E+00
			7.00		1.1336E+00
			7.50		1.1335E+00
			8.00		1.1333E+00
			8.50		1.1331E+00
			9.00		1.1330E+00
			9.50		1.1330E+00
			10.00		1.1330E+00
			10.50		1.1330E+00
			11.00		1.1329E+00
			11.50		1.1326E+00
			12.00		1.1322E+00
			12.50		1.1317E+00
			13.00		1.1313E+00
			13.50		1.1309E+00
			14.00		1.1305E+00
			14.50		1.1300E+00
			15.00		1.1296E+00
			15.50		1.1292E+00
			16.00		1.1288E+00
			16.50		1.1285E+00
			17.00		1.1281E+00
			17.50		1.1277E+00
			18.00		1.1272E+00
			18.50		1.1264E+00
			19.00		1.1256E+00
			19.50		1.1244E+00
			20.00		1.1232E+00
			20.50		1.1221E+00
			21.00		1.1209E+00
			21.50		1.1200E+00
			22.00		1.1190E+00
			22.50		1.1182E+00
			23.00		1.1174E+00
			23.50		1.1166E+00
			24.00		1.1158E+00
			24.50		1.1144E+00
			25.00		1.1130E+00
			25.50		1.1114E+00
			26.00		1.1097E+00
			26.50		1.1079E+00
			27.00		1.1061E+00
			27.50		1.1042E+00
			28.00		1.1022E+00
			28.50		1.1000E+00
			29.00		1.0977E+00
			29.50		1.0950E+00
			30.00		1.0923E+00
			30.50		1.0891E+00
			31.00		1.0858E+00
			31.50		1.0821E+00
			32.00		1.0784E+00
			32.50		1.0737E+00
			33.00		1.0689E+00
			33.50		1.0610E+00
			34.00		1.0532E+00
			34.50		1.0424E+00
			35.00		1.0315E+00
			35.50		1.0133E+00
			36.00		995.11E-03
			36.50		964.88E-03
			37.00		934.66E-03
			37.50		887.42E-03
			38.00		840.18E-03
			38.50		779.21E-03
			39.00		718.25E-03
			39.50		649.02E-03
			40.00		579.80E-03
			40.50		512.66E-03
			41.00		445.51E-03
			41.50		387.14E-03
			42.00		328.78E-03
			42.50		285.46E-03
			43.00		242.14E-03
			43.50		215.08E-03
			44.00		188.01E-03
			44.50		171.88E-03
			45.00		155.74E-03
			45.50		146.03E-03
			46.00		136.31E-03
			46.50		129.48E-03
			47.00		122.66E-03
			47.50		117.74E-03
			48.00		112.82E-03
			48.50		109.05E-03
			49.00		105.29E-03
			49.50		102.10E-03
			50.00		98.917E-03
			50.50		96.062E-03
			51.00		93.208E-03
			51.50		91.053E-03
			52.00		88.898E-03
			52.50		86.743E-03
			53.00		84.587E-03
			53.50		82.704E-03
			54.00		80.821E-03
			54.50		79.384E-03
			55.00		77.948E-03
			55.50		76.436E-03
			56.00		74.924E-03
			56.50		73.391E-03
			57.00		71.858E-03
			57.50		70.278E-03
			58.00		68.698E-03
			58.50		67.438E-03
			59.00		66.178E-03
			59.50		64.943E-03
			60.00		63.708E-03
			60.50		62.466E-03
			61.00		61.223E-03
			61.50		60.052E-03
			62.00		58.881E-03
			62.50		57.869E-03
			63.00		56.857E-03
			63.50		55.879E-03
			64.00		54.900E-03
			64.50		53.952E-03
			65.00		53.004E-03
			65.50		51.996E-03
			66.00		50.987E-03
			66.50		50.016E-03
			67.00		49.044E-03
			67.50		48.491E-03
			68.00		47.938E-03
			68.50		47.159E-03
			69.00		46.379E-03
			69.50		45.407E-03
			70.00		44.435E-03
			70.50		43.634E-03
			71.00		42.833E-03
			71.50		42.234E-03
			72.00		41.634E-03
			72.50		40.920E-03
			73.00		40.207E-03
			73.50		39.533E-03
			74.00		38.860E-03
			74.50		38.525E-03
			75.00		38.191E-03
		END_DATA
	END_SCAN  3
	BEGIN_SCAN  4
		TASK_NAME=tba PDD Profiles
		PROGRAM=WaterTankScans
		COMMENT=PDD + 5x X
		MEAS_DATE=08-Feb-2021 09:46:11
		LINAC=TRUEBEAMSN4791
		MODALITY=X
		ISOCENTER=1000.00
		INPLANE_AXIS=Y
		CROSSPLANE_AXIS=X
		DEPTH_AXIS=Depth
		INPLANE_AXIS_DIR=TARGET_GUN
		CROSSPLANE_AXIS_DIR=LEFT_RIGHT
		DEPTH_AXIS_DIR=UP_DOWN
		ENERGY=6.00
		NOMINAL_DMAX=15.00
		SSD=900.00
		SCD=450.00
		WEDGE_ANGLE=0.00
		FIELD_INPLANE=80.00
		FIELD_CROSSPLANE=80.00
		FIELD_TYPE=RECTANGULAR
		GANTRY=0.00
		GANTRY_UPRIGHT_POSITION=0
		GANTRY_ROTATION=CW
		COLL_ANGLE=0.00
		COLL_OFFSET_INPLANE=0.00
		COLL_OFFSET_CROSSPLANE=0.00
		SCAN_DEVICE=BeamScan
		SCAN_DEVICE_SETUP=BARA_LEFT_RIGHT
		ELECTROMETER=BeamScan
		RANGE_FIELD=LOW
		RANGE_REFERENCE=MEDIUM
		DETECTOR=THIMBLE_CHAMBER
		DETECTOR_SUBCODE=SEMIFLEX
		DETECTOR_RADIUS=2.40
		DETECTOR_NAME=PTW 31021 Semiflex 3D (1)
		DETECTOR_SN=142316
		DETECTOR_CALIBRATION=588000000.00
		DETECTOR_IS_CALIBRATED=1
		DETECTOR_REFERENCE=THIMBLE_CHAMBER
		DETECTOR_REFERENCE_SUBCODE=SEMIFLEX
		DETECTOR_REFERENCE_RADIUS=2.75
		DETECTOR_REFERENCE_NAME=PTW 31010 Semiflex (1)
		DETECTOR_REFERENCE_SN=—
		DETECTOR_REFERENCE_IS_CALIBRATED=0
		DETECTOR_REFERENCE_CALIBRATION=303000000.00
		DETECTOR_HV=400.0
		DETECTOR_REFERENCE_HV=400.0
		DETECTOR_ORIENTATION=HORIZONTAL
		FILTER=FF
		SCAN_SPEED_PROFILE=10.00
		SCAN_PROF_SPEED_DEP=DEPTH
		SCAN_SPEED_PDD=12.50
		SCAN_PDD_SPEED_DEP=ENERGY
		DETECTOR_TYPE=T31021
		REF_FIELD_DEPTH=100.00
		REF_FIELD_DEFINED=ISOCENTER
