BEGIN_SCAN_DATA
	FORMAT=CC-Export V1.9                  
	FILE_CREATION_DATE=26-Jul-2022 10:35:40
	LAST_MODIFIED=26-Jul-2022 10:35:40
	BEGIN_SCAN  1
		TASK_NAME=tba PDD Profiles
		PROGRAM=WaterTankScans
		COMMENT=PDD + 5x X
		MEAS_DATE=09-Feb-2021 16:11:11
		LINAC=TRUEBEAMSN4791
		MODALITY=X
		ISOCENTER=1000.00
		INPLANE_AXIS=Y
		CROSSPLANE_AXIS=X
		DEPTH_AXIS=Depth
		INPLANE_AXIS_DIR=TARGET_GUN
		CROSSPLANE_AXIS_DIR=LEFT_RIGHT
		DEPTH_AXIS_DIR=UP_DOWN
		ENERGY=6.00
		NOMINAL_DMAX=15.00
		SSD=900.00
		SCD=450.00
		WEDGE_ANGLE=0.00
		FIELD_INPLANE=120.00
		FIELD_CROSSPLANE=120.00
		FIELD_TYPE=RECTANGULAR
		GANTRY=0.00
		GANTRY_UPRIGHT_POSITION=0
		GANTRY_ROTATION=CW
		COLL_ANGLE=0.00
		COLL_OFFSET_INPLANE=0.00
		COLL_OFFSET_CROSSPLANE=0.00
		SCAN_DEVICE=BeamScan
		SCAN_DEVICE_SETUP=BARA_LEFT_RIGHT
		ELECTROMETER=BeamScan
		RANGE_FIELD=LOW
		RANGE_REFERENCE=MEDIUM
		DETECTOR=THIMBLE_CHAMBER
		DETECTOR_SUBCODE=SEMIFLEX
		DETECTOR_RADIUS=2.40
		DETECTOR_NAME=PTW 31021 Semiflex 3D (1)
		DETECTOR_SN=142316
		DETECTOR_CALIBRATION=588000000.00
		DETECTOR_IS_CALIBRATED=1
		DETECTOR_REFERENCE=THIMBLE_CHAMBER
		DETECTOR_REFERENCE_SUBCODE=SEMIFLEX
		DETECTOR_REFERENCE_RADIUS=2.75
		DETECTOR_REFERENCE_NAME=PTW 31010 Semiflex (1)
		DETECTOR_REFERENCE_SN=—
		DETECTOR_REFERENCE_IS_CALIBRATED=0
		DETECTOR_REFERENCE_CALIBRATION=303000000.00
		DETECTOR_HV=400.0
		DETECTOR_REFERENCE_HV=400.0
		DETECTOR_ORIENTATION=HORIZONTAL
		FILTER=FFF
		SCAN_SPEED_PROFILE=12.50
		SCAN_PROF_SPEED_DEP=DEPTH
		SCAN_SPEED_PDD=12.50
		SCAN_PDD_SPEED_DEP=ENERGY
		DETECTOR_TYPE=T31021
		REF_FIELD_DEPTH=100.00
		REF_FIELD_DEFINED=ISOCENTER
		REF_FIELD_INPLANE=100.00
		REF_FIELD_CROSSPLANE=100.00
		REF_SCAN_POSITIONS=-85.00;-84.00;-83.00;-82.00;-81.00;-80.00;-79.00;-78.00;-77.00;-76.00;-75.00;-74.00;-73.00;-72.00;-71.00;-70.00;-69.00;-68.00;-67.00;-66.00;-65.00;-64.00;-63.00;-62.00;-61.00;-60.00;-59.00;-58.00;-57.00;-56.00;-55.00;-54.00;-53.00;-52.00;-51.00;-50.00;-49.00;-48.00;-47.00;-46.00;-45.00;-44.00;-43.00;-42.00;-41.00;-40.00;-39.00;-38.00;-37.00;-36.00;-35.00;-34.00;-33.00;-32.00;-31.00;-30.00;-29.00;-28.00;-27.00;-26.00;-25.00;-24.00;-23.00;-22.00;-21.00;-20.00;-19.00;-18.00;-17.00;-16.00;-15.00;-14.00;-13.00;-12.00;-11.00;-10.00;-9.00;-8.00;-7.00;-6.00;-5.00;-4.00;-3.00;-2.00;-1.00;0.00;1.00;2.00;3.00;4.00;5.00;6.00;7.00;8.00;9.00;10.00;11.00;12.00;13.00;14.00;15.00;16.00;17.00;18.00;19.00;20.00;21.00;22.00;23.00;24.00;25.00;26.00;27.00;28.00;29.00;30.00;31.00;32.00;33.00;34.00;35.00;36.00;37.00;38.00;39.00;40.00;41.00;42.00;43.00;44.00;45.00;46.00;47.00;48.00;49.00;50.00;51.00;52.00;53.00;54.00;55.00;56.00;57.00;58.00;59.00;60.00;61.00;62.00;63.00;64.00;65.00;66.00;67.00;68.00;69.00;70.00;71.00;72.00;73.00;74.00;75.00;76.00;77.00;78.00;79.00;80.00;81.00;82.00;83.00;84.00;85.00;
		REF_OVERSCAN_FACTOR=1.00
		SCAN_CURVETYPE=CROSSPLANE_PROFILE
		SCAN_DEPTH=15.00
		SCAN_OFFAXIS_INPLANE=0.00
		SCAN_OFFAXIS_CROSSPLANE=0.00
		SCAN_ANGLE=0.00
		SCAN_DIAGONAL=NOT_DIAGONAL
		SCAN_DIRECTION=POSITIVE
		MEAS_MEDIUM=WATER
		MEAS_PRESET=MEAS_CONTINUOUS_REFERENCE_SCAN
		MEAS_TIME=0.080
		MEAS_UNIT=A.U.
		INCLINATION_ANGLE=0.00
		PRESSURE=1013.25
		TEMPERATURE=20.00
		NORM_TEMPERATURE=20.00
		CORRECTION_FACTOR=1.0000
		EXPECTED_MAX_DOSE_RATE=3.00
		EPOM_DEPTH_SHIFT=0.2
		EPOM_MODE=SHIFT_PROTOCOL
		CORRECTIONS=SMOOTHED_CORR;SYMMETRY_CORR;INTERPOLATED_CORR;
		BEGIN_DATA
			-87.00		31.156E-03
			-86.50		31.425E-03
			-86.00		31.693E-03
			-85.50		31.964E-03
			-85.00		32.236E-03
			-84.50		32.542E-03
			-84.00		32.848E-03
			-83.50		33.261E-03
			-83.00		33.673E-03
			-82.50		34.077E-03
			-82.00		34.480E-03
			-81.50		35.037E-03
			-81.00		35.594E-03
			-80.50		35.976E-03
			-80.00		36.358E-03
			-79.50		36.996E-03
			-79.00		37.634E-03
			-78.50		38.061E-03
			-78.00		38.488E-03
			-77.50		39.091E-03
			-77.00		39.694E-03
			-76.50		40.212E-03
			-76.00		40.730E-03
			-75.50		41.442E-03
			-75.00		42.153E-03
			-74.50		43.070E-03
			-74.00		43.986E-03
			-73.50		44.794E-03
			-73.00		45.603E-03
			-72.50		46.462E-03
			-72.00		47.321E-03
			-71.50		48.117E-03
			-71.00		48.914E-03
			-70.50		50.103E-03
			-70.00		51.291E-03
			-69.50		52.389E-03
			-69.00		53.486E-03
			-68.50		54.636E-03
			-68.00		55.786E-03
			-67.50		57.086E-03
			-67.00		58.387E-03
			-66.50		60.047E-03
			-66.00		61.707E-03
			-65.50		63.799E-03
			-65.00		65.890E-03
			-64.50		68.579E-03
			-64.00		71.268E-03
			-63.50		74.546E-03
			-63.00		77.824E-03
			-62.50		82.418E-03
			-62.00		87.011E-03
			-61.50		93.419E-03
			-61.00		99.826E-03
			-60.50		109.77E-03
			-60.00		119.71E-03
			-59.50		138.07E-03
			-59.00		156.43E-03
			-58.50		192.61E-03
			-58.00		228.78E-03
			-57.50		295.41E-03
			-57.00		362.03E-03
			-56.50		456.76E-03
			-56.00		551.50E-03
			-55.50		664.58E-03
			-55.00		777.66E-03
			-54.50		893.43E-03
			-54.00		1.0092E+00
			-53.50		1.1100E+00
			-53.00		1.2109E+00
			-52.50		1.2840E+00
			-52.00		1.3572E+00
			-51.50		1.4003E+00
			-51.00		1.4434E+00
			-50.50		1.4675E+00
			-50.00		1.4916E+00
			-49.50		1.5052E+00
			-49.00		1.5189E+00
			-48.50		1.5287E+00
			-48.00		1.5384E+00
			-47.50		1.5461E+00
			-47.00		1.5537E+00
			-46.50		1.5603E+00
			-46.00		1.5668E+00
			-45.50		1.5717E+00
			-45.00		1.5766E+00
			-44.50		1.5812E+00
			-44.00		1.5859E+00
			-43.50		1.5903E+00
			-43.00		1.5946E+00
			-42.50		1.5989E+00
			-42.00		1.6031E+00
			-41.50		1.6073E+00
			-41.00		1.6116E+00
			-40.50		1.6156E+00
			-40.00		1.6197E+00
			-39.50		1.6234E+00
			-39.00		1.6271E+00
			-38.50		1.6305E+00
			-38.00		1.6339E+00
			-37.50		1.6372E+00
			-37.00		1.6404E+00
			-36.50		1.6437E+00
			-36.00		1.6469E+00
			-35.50		1.6500E+00
			-35.00		1.6530E+00
			-34.50		1.6559E+00
			-34.00		1.6588E+00
			-33.50		1.6619E+00
			-33.00		1.6650E+00
			-32.50		1.6681E+00
			-32.00		1.6713E+00
			-31.50		1.6746E+00
			-31.00		1.6779E+00
			-30.50		1.6810E+00
			-30.00		1.6841E+00
			-29.50		1.6869E+00
			-29.00		1.6896E+00
			-28.50		1.6920E+00
			-28.00		1.6944E+00
			-27.50		1.6969E+00
			-27.00		1.6993E+00
			-26.50		1.7021E+00
			-26.00		1.7049E+00
			-25.50		1.7076E+00
			-25.00		1.7103E+00
			-24.50		1.7127E+00
			-24.00		1.7151E+00
			-23.50		1.7175E+00
			-23.00		1.7199E+00
			-22.50		1.7222E+00
			-22.00		1.7246E+00
			-21.50		1.7269E+00
			-21.00		1.7292E+00
			-20.50		1.7315E+00
			-20.00		1.7338E+00
			-19.50		1.7357E+00
			-19.00		1.7377E+00
			-18.50		1.7394E+00
			-18.00		1.7412E+00
			-17.50		1.7433E+00
			-17.00		1.7454E+00
			-16.50		1.7474E+00
			-16.00		1.7494E+00
			-15.50		1.7509E+00
			-15.00		1.7524E+00
			-14.50		1.7537E+00
			-14.00		1.7550E+00
			-13.50		1.7564E+00
			-13.00		1.7577E+00
			-12.50		1.7592E+00
			-12.00		1.7606E+00
			-11.50		1.7618E+00
			-11.00		1.7631E+00
			-10.50		1.7643E+00
			-10.00		1.7654E+00
			-9.50		1.7667E+00
			-9.00		1.7680E+00
			-8.50		1.7694E+00
			-8.00		1.7708E+00
			-7.50		1.7716E+00
			-7.00		1.7724E+00
			-6.50		1.7728E+00
			-6.00		1.7731E+00
			-5.50		1.7734E+00
			-5.00		1.7736E+00
			-4.50		1.7742E+00
			-4.00		1.7747E+00
			-3.50		1.7752E+00
			-3.00		1.7758E+00
			-2.50		1.7761E+00
			-2.00		1.7764E+00
			-1.50		1.7764E+00
			-1.00		1.7764E+00
			-0.50		1.7764E+00
			0.00		1.7764E+00
			0.50		1.7764E+00
			1.00		1.7764E+00
			1.50		1.7764E+00
			2.00		1.7764E+00
			2.50		1.7761E+00
			3.00		1.7758E+00
			3.50		1.7752E+00
			4.00		1.7747E+00
			4.50		1.7742E+00
			5.00		1.7736E+00
			5.50		1.7734E+00
			6.00		1.7731E+00
			6.50		1.7728E+00
			7.00		1.7724E+00
			7.50		1.7716E+00
			8.00		1.7708E+00
			8.50		1.7694E+00
			9.00		1.7680E+00
			9.50		1.7667E+00
			10.00		1.7654E+00
			10.50		1.7643E+00
			11.00		1.7631E+00
			11.50		1.7618E+00
			12.00		1.7606E+00
			12.50		1.7592E+00
			13.00		1.7577E+00
			13.50		1.7564E+00
			14.00		1.7550E+00
			14.50		1.7537E+00
			15.00		1.7524E+00
			15.50		1.7509E+00
			16.00		1.7494E+00
			16.50		1.7474E+00
			17.00		1.7454E+00
			17.50		1.7433E+00
			18.00		1.7412E+00
			18.50		1.7394E+00
			19.00		1.7377E+00
			19.50		1.7357E+00
			20.00		1.7338E+00
			20.50		1.7315E+00
			21.00		1.7292E+00
			21.50		1.7269E+00
			22.00		1.7246E+00
			22.50		1.7222E+00
			23.00		1.7199E+00
			23.50		1.7175E+00
			24.00		1.7151E+00
			24.50		1.7127E+00
			25.00		1.7103E+00
			25.50		1.7076E+00
			26.00		1.7049E+00
			26.50		1.7021E+00
			27.00		1.6993E+00
			27.50		1.6969E+00
			28.00		1.6944E+00
			28.50		1.6920E+00
			29.00		1.6896E+00
			29.50		1.6869E+00
			30.00		1.6841E+00
			30.50		1.6810E+00
			31.00		1.6779E+00
			31.50		1.6746E+00
			32.00		1.6713E+00
			32.50		1.6681E+00
			33.00		1.6650E+00
			33.50		1.6619E+00
			34.00		1.6588E+00
			34.50		1.6559E+00
			35.00		1.6530E+00
			35.50		1.6500E+00
			36.00		1.6469E+00
			36.50		1.6437E+00
			37.00		1.6404E+00
			37.50		1.6372E+00
			38.00		1.6339E+00
			38.50		1.6305E+00
			39.00		1.6271E+00
			39.50		1.6234E+00
			40.00		1.6197E+00
			40.50		1.6156E+00
			41.00		1.6116E+00
			41.50		1.6073E+00
			42.00		1.6031E+00
			42.50		1.5989E+00
			43.00		1.5946E+00
			43.50		1.5903E+00
			44.00		1.5859E+00
			44.50		1.5812E+00
			45.00		1.5766E+00
			45.50		1.5717E+00
			46.00		1.5668E+00
			46.50		1.5603E+00
			47.00		1.5537E+00
			47.50		1.5461E+00
			48.00		1.5384E+00
			48.50		1.5287E+00
			49.00		1.5189E+00
			49.50		1.5052E+00
			50.00		1.4916E+00
			50.50		1.4675E+00
			51.00		1.4434E+00
			51.50		1.4003E+00
			52.00		1.3572E+00
			52.50		1.2840E+00
			53.00		1.2109E+00
			53.50		1.1100E+00
			54.00		1.0092E+00
			54.50		893.43E-03
			55.00		777.66E-03
			55.50		664.58E-03
			56.00		551.50E-03
			56.50		456.76E-03
			57.00		362.03E-03
			57.50		295.41E-03
			58.00		228.78E-03
			58.50		192.61E-03
			59.00		156.43E-03
			59.50		138.07E-03
			60.00		119.71E-03
			60.50		109.77E-03
			61.00		99.826E-03
			61.50		93.419E-03
			62.00		87.011E-03
			62.50		82.418E-03
			63.00		77.824E-03
			63.50		74.546E-03
			64.00		71.268E-03
			64.50		68.579E-03
			65.00		65.890E-03
			65.50		63.799E-03
			66.00		61.707E-03
			66.50		60.047E-03
			67.00		58.387E-03
			67.50		57.086E-03
			68.00		55.786E-03
			68.50		54.636E-03
			69.00		53.486E-03
			69.50		52.389E-03
			70.00		51.291E-03
			70.50		50.103E-03
			71.00		48.914E-03
			71.50		48.117E-03
			72.00		47.321E-03
			72.50		46.462E-03
			73.00		45.603E-03
			73.50		44.794E-03
			74.00		43.986E-03
			74.50		43.070E-03
			75.00		42.153E-03
			75.50		41.442E-03
			76.00		40.730E-03
			76.50		40.212E-03
			77.00		39.694E-03
			77.50		39.091E-03
			78.00		38.488E-03
			78.50		38.061E-03
			79.00		37.634E-03
			79.50		36.996E-03
			80.00		36.358E-03
			80.50		35.976E-03
			81.00		35.594E-03
			81.50		35.037E-03
			82.00		34.480E-03
			82.50		34.077E-03
			83.00		33.673E-03
			83.50		33.261E-03
			84.00		32.848E-03
			84.50		32.542E-03
			85.00		32.236E-03
			85.50		31.964E-03
			86.00		31.693E-03
			86.50		31.425E-03
			87.00		31.156E-03
		END_DATA
	END_SCAN  1
	BEGIN_SCAN  2
		TASK_NAME=tba PDD Profiles
		PROGRAM=WaterTankScans
		COMMENT=PDD + 5x X
		MEAS_DATE=09-Feb-2021 16:11:30
		LINAC=TRUEBEAMSN4791
		MODALITY=X
		ISOCENTER=1000.00
		INPLANE_AXIS=Y
		CROSSPLANE_AXIS=X
		DEPTH_AXIS=Depth
		INPLANE_AXIS_DIR=TARGET_GUN
		CROSSPLANE_AXIS_DIR=LEFT_RIGHT
		DEPTH_AXIS_DIR=UP_DOWN
		ENERGY=6.00
		NOMINAL_DMAX=15.00
		SSD=900.00
		SCD=450.00
		WEDGE_ANGLE=0.00
		FIELD_INPLANE=120.00
		FIELD_CROSSPLANE=120.00
		FIELD_TYPE=RECTANGULAR
		GANTRY=0.00
		GANTRY_UPRIGHT_POSITION=0
		GANTRY_ROTATION=CW
		COLL_ANGLE=0.00
		COLL_OFFSET_INPLANE=0.00
		COLL_OFFSET_CROSSPLANE=0.00
		SCAN_DEVICE=BeamScan
		SCAN_DEVICE_SETUP=BARA_LEFT_RIGHT
		ELECTROMETER=BeamScan
		RANGE_FIELD=LOW
		RANGE_REFERENCE=MEDIUM
		DETECTOR=THIMBLE_CHAMBER
		DETECTOR_SUBCODE=SEMIFLEX
		DETECTOR_RADIUS=2.40
		DETECTOR_NAME=PTW 31021 Semiflex 3D (1)
		DETECTOR_SN=142316
		DETECTOR_CALIBRATION=588000000.00
		DETECTOR_IS_CALIBRATED=1
		DETECTOR_REFERENCE=THIMBLE_CHAMBER
		DETECTOR_REFERENCE_SUBCODE=SEMIFLEX
		DETECTOR_REFERENCE_RADIUS=2.75
		DETECTOR_REFERENCE_NAME=PTW 31010 Semiflex (1)
		DETECTOR_REFERENCE_SN=—
		DETECTOR_REFERENCE_IS_CALIBRATED=0
		DETECTOR_REFERENCE_CALIBRATION=303000000.00
		DETECTOR_HV=400.0
		DETECTOR_REFERENCE_HV=400.0
		DETECTOR_ORIENTATION=HORIZONTAL
		FILTER=FFF
		SCAN_SPEED_PROFILE=12.50
		SCAN_PROF_SPEED_DEP=DEPTH
		SCAN_SPEED_PDD=12.50
		SCAN_PDD_SPEED_DEP=ENERGY
		DETECTOR_TYPE=T31021
		REF_FIELD_DEPTH=100.00
		REF_FIELD_DEFINED=ISOCENTER
		REF_FIELD_INPLANE=100.00
		REF_FIELD_CROSSPLANE=100.00
		REF_SCAN_POSITIONS=-85.00;-84.00;-83.00;-82.00;-81.00;-80.00;-79.00;-78.00;-77.00;-76.00;-75.00;-74.00;-73.00;-72.00;-71.00;-70.00;-69.00;-68.00;-67.00;-66.00;-65.00;-64.00;-63.00;-62.00;-61.00;-60.00;-59.00;-58.00;-57.00;-56.00;-55.00;-54.00;-53.00;-52.00;-51.00;-50.00;-49.00;-48.00;-47.00;-46.00;-45.00;-44.00;-43.00;-42.00;-41.00;-40.00;-39.00;-38.00;-37.00;-36.00;-35.00;-34.00;-33.00;-32.00;-31.00;-30.00;-29.00;-28.00;-27.00;-26.00;-25.00;-24.00;-23.00;-22.00;-21.00;-20.00;-19.00;-18.00;-17.00;-16.00;-15.00;-14.00;-13.00;-12.00;-11.00;-10.00;-9.00;-8.00;-7.00;-6.00;-5.00;-4.00;-3.00;-2.00;-1.00;0.00;1.00;2.00;3.00;4.00;5.00;6.00;7.00;8.00;9.00;10.00;11.00;12.00;13.00;14.00;15.00;16.00;17.00;18.00;19.00;20.00;21.00;22.00;23.00;24.00;25.00;26.00;27.00;28.00;29.00;30.00;31.00;32.00;33.00;34.00;35.00;36.00;37.00;38.00;39.00;40.00;41.00;42.00;43.00;44.00;45.00;46.00;47.00;48.00;49.00;50.00;51.00;52.00;53.00;54.00;55.00;56.00;57.00;58.00;59.00;60.00;61.00;62.00;63.00;64.00;65.00;66.00;67.00;68.00;69.00;70.00;71.00;72.00;73.00;74.00;75.00;76.00;77.00;78.00;79.00;80.00;81.00;82.00;83.00;84.00;85.00;
		REF_OVERSCAN_FACTOR=1.00
		SCAN_CURVETYPE=CROSSPLANE_PROFILE
		SCAN_DEPTH=50.00
		SCAN_OFFAXIS_INPLANE=0.00
		SCAN_OFFAXIS_CROSSPLANE=0.00
		SCAN_ANGLE=0.00
		SCAN_DIAGONAL=NOT_DIAGONAL
		SCAN_DIRECTION=NEGATIVE
		MEAS_MEDIUM=WATER
		MEAS_PRESET=MEAS_CONTINUOUS_REFERENCE_SCAN
		MEAS_TIME=0.080
		MEAS_UNIT=A.U.
		INCLINATION_ANGLE=0.00
		PRESSURE=1013.25
		TEMPERATURE=20.00
		NORM_TEMPERATURE=20.00
		CORRECTION_FACTOR=1.0000
		EXPECTED_MAX_DOSE_RATE=3.00
		EPOM_DEPTH_SHIFT=0.2
		EPOM_MODE=SHIFT_PROTOCOL
		CORRECTIONS=SMOOTHED_CORR;SYMMETRY_CORR;INTERPOLATED_CORR;
		BEGIN_DATA
			-91.00		39.986E-03
			-90.50		40.385E-03
			-90.00		40.783E-03
			-89.50		41.286E-03
			-89.00		41.790E-03
			-88.50		42.435E-03
			-88.00		43.080E-03
			-87.50		43.722E-03
			-87.00		44.365E-03
			-86.50		44.868E-03
			-86.00		45.372E-03
			-85.50		45.995E-03
			-85.00		46.618E-03
			-84.50		47.277E-03
			-84.00		47.937E-03
			-83.50		48.696E-03
			-83.00		49.456E-03
			-82.50		50.345E-03
			-82.00		51.233E-03
			-81.50		52.159E-03
			-81.00		53.084E-03
			-80.50		53.926E-03
			-80.00		54.769E-03
			-79.50		55.687E-03
			-79.00		56.605E-03
			-78.50		57.678E-03
			-78.00		58.751E-03
			-77.50		59.824E-03
			-77.00		60.897E-03
			-76.50		61.956E-03
			-76.00		63.014E-03
			-75.50		64.377E-03
			-75.00		65.740E-03
			-74.50		67.018E-03
			-74.00		68.297E-03
			-73.50		69.765E-03
			-73.00		71.233E-03
			-72.50		72.646E-03
			-72.00		74.058E-03
			-71.50		75.749E-03
			-71.00		77.440E-03
			-70.50		79.098E-03
			-70.00		80.755E-03
			-69.50		82.628E-03
			-69.00		84.501E-03
			-68.50		87.171E-03
			-68.00		89.841E-03
			-67.50		92.325E-03
			-67.00		94.809E-03
			-66.50		97.840E-03
			-66.00		100.87E-03
			-65.50		104.89E-03
			-65.00		108.91E-03
			-64.50		113.86E-03
			-64.00		118.80E-03
			-63.50		125.69E-03
			-63.00		132.59E-03
			-62.50		142.85E-03
			-62.00		153.12E-03
			-61.50		169.93E-03
			-61.00		186.74E-03
			-60.50		218.65E-03
			-60.00		250.56E-03
			-59.50		304.96E-03
			-59.00		359.36E-03
			-58.50		433.61E-03
			-58.00		507.85E-03
			-57.50		594.26E-03
			-57.00		680.68E-03
			-56.50		767.58E-03
			-56.00		854.47E-03
			-55.50		929.63E-03
			-55.00		1.0048E+00
			-54.50		1.0612E+00
			-54.00		1.1176E+00
			-53.50		1.1513E+00
			-53.00		1.1850E+00
			-52.50		1.2053E+00
			-52.00		1.2255E+00
			-51.50		1.2378E+00
			-51.00		1.2501E+00
			-50.50		1.2581E+00
			-50.00		1.2662E+00
			-49.50		1.2734E+00
			-49.00		1.2805E+00
			-48.50		1.2865E+00
			-48.00		1.2924E+00
			-47.50		1.2974E+00
			-47.00		1.3024E+00
			-46.50		1.3072E+00
			-46.00		1.3120E+00
			-45.50		1.3165E+00
			-45.00		1.3210E+00
			-44.50		1.3252E+00
			-44.00		1.3294E+00
			-43.50		1.3334E+00
			-43.00		1.3374E+00
			-42.50		1.3413E+00
			-42.00		1.3452E+00
			-41.50		1.3490E+00
			-41.00		1.3528E+00
			-40.50		1.3564E+00
			-40.00		1.3600E+00
			-39.50		1.3632E+00
			-39.00		1.3663E+00
			-38.50		1.3694E+00
			-38.00		1.3726E+00
			-37.50		1.3757E+00
			-37.00		1.3788E+00
			-36.50		1.3817E+00
			-36.00		1.3846E+00
			-35.50		1.3874E+00
			-35.00		1.3902E+00
			-34.50		1.3930E+00
			-34.00		1.3957E+00
			-33.50		1.3985E+00
			-33.00		1.4013E+00
			-32.50		1.4039E+00
			-32.00		1.4065E+00
			-31.50		1.4092E+00
			-31.00		1.4118E+00
			-30.50		1.4146E+00
			-30.00		1.4174E+00
			-29.50		1.4202E+00
			-29.00		1.4229E+00
			-28.50		1.4254E+00
			-28.00		1.4279E+00
			-27.50		1.4301E+00
			-27.00		1.4323E+00
			-26.50		1.4344E+00
			-26.00		1.4366E+00
			-25.50		1.4387E+00
			-25.00		1.4408E+00
			-24.50		1.4428E+00
			-24.00		1.4449E+00
			-23.50		1.4469E+00
			-23.00		1.4490E+00
			-22.50		1.4510E+00
			-22.00		1.4530E+00
			-21.50		1.4548E+00
			-21.00		1.4567E+00
			-20.50		1.4584E+00
			-20.00		1.4601E+00
			-19.50		1.4619E+00
			-19.00		1.4636E+00
			-18.50		1.4655E+00
			-18.00		1.4673E+00
			-17.50		1.4690E+00
			-17.00		1.4707E+00
			-16.50		1.4722E+00
			-16.00		1.4738E+00
			-15.50		1.4753E+00
			-15.00		1.4767E+00
			-14.50		1.4782E+00
			-14.00		1.4797E+00
			-13.50		1.4811E+00
			-13.00		1.4825E+00
			-12.50		1.4836E+00
			-12.00		1.4848E+00
			-11.50		1.4857E+00
			-11.00		1.4866E+00
			-10.50		1.4873E+00
			-10.00		1.4880E+00
			-9.50		1.4886E+00
			-9.00		1.4892E+00
			-8.50		1.4897E+00
			-8.00		1.4902E+00
			-7.50		1.4908E+00
			-7.00		1.4913E+00
			-6.50		1.4920E+00
			-6.00		1.4927E+00
			-5.50		1.4934E+00
			-5.00		1.4941E+00
			-4.50		1.4948E+00
			-4.00		1.4955E+00
			-3.50		1.4962E+00
			-3.00		1.4969E+00
			-2.50		1.4974E+00
			-2.00		1.4980E+00
			-1.50		1.4983E+00
			-1.00		1.4985E+00
			-0.50		1.4985E+00
			0.00		1.4986E+00
			0.50		1.4985E+00
			1.00		1.4985E+00
			1.50		1.4983E+00
			2.00		1.4980E+00
			2.50		1.4974E+00
			3.00		1.4969E+00
			3.50		1.4962E+00
			4.00		1.4955E+00
			4.50		1.4948E+00
			5.00		1.4941E+00
			5.50		1.4934E+00
			6.00		1.4927E+00
			6.50		1.4920E+00
			7.00		1.4913E+00
			7.50		1.4908E+00
			8.00		1.4902E+00
			8.50		1.4897E+00
			9.00		1.4892E+00
			9.50		1.4886E+00
			10.00		1.4880E+00
			10.50		1.4873E+00
			11.00		1.4866E+00
			11.50		1.4857E+00
			12.00		1.4848E+00
			12.50		1.4836E+00
			13.00		1.4825E+00
			13.50		1.4811E+00
			14.00		1.4797E+00
			14.50		1.4782E+00
			15.00		1.4767E+00
			15.50		1.4753E+00
			16.00		1.4738E+00
			16.50		1.4722E+00
			17.00		1.4707E+00
			17.50		1.4690E+00
			18.00		1.4673E+00
			18.50		1.4655E+00
			19.00		1.4636E+00
			19.50		1.4619E+00
			20.00		1.4601E+00
			20.50		1.4584E+00
			21.00		1.4567E+00
			21.50		1.4548E+00
			22.00		1.4530E+00
			22.50		1.4510E+00
			23.00		1.4490E+00
			23.50		1.4469E+00
			24.00		1.4449E+00
			24.50		1.4428E+00
			25.00		1.4408E+00
			25.50		1.4387E+00
			26.00		1.4366E+00
			26.50		1.4344E+00
			27.00		1.4323E+00
			27.50		1.4301E+00
			28.00		1.4279E+00
			28.50		1.4254E+00
			29.00		1.4229E+00
			29.50		1.4202E+00
			30.00		1.4174E+00
			30.50		1.4146E+00
			31.00		1.4118E+00
			31.50		1.4092E+00
			32.00		1.4065E+00
			32.50		1.4039E+00
			33.00		1.4013E+00
			33.50		1.3985E+00
			34.00		1.3957E+00
			34.50		1.3930E+00
			35.00		1.3902E+00
			35.50		1.3874E+00
			36.00		1.3846E+00
			36.50		1.3817E+00
			37.00		1.3788E+00
			37.50		1.3757E+00
			38.00		1.3726E+00
			38.50		1.3694E+00
			39.00		1.3663E+00
			39.50		1.3632E+00
			40.00		1.3600E+00
			40.50		1.3564E+00
			41.00		1.3528E+00
			41.50		1.3490E+00
			42.00		1.3452E+00
			42.50		1.3413E+00
			43.00		1.3374E+00
			43.50		1.3334E+00
			44.00		1.3294E+00
			44.50		1.3252E+00
			45.00		1.3210E+00
			45.50		1.3165E+00
			46.00		1.3120E+00
			46.50		1.3072E+00
			47.00		1.3024E+00
			47.50		1.2974E+00
			48.00		1.2924E+00
			48.50		1.2865E+00
			49.00		1.2805E+00
			49.50		1.2734E+00
			50.00		1.2662E+00
			50.50		1.2581E+00
			51.00		1.2501E+00
			51.50		1.2378E+00
			52.00		1.2255E+00
			52.50		1.2053E+00
			53.00		1.1850E+00
			53.50		1.1513E+00
			54.00		1.1176E+00
			54.50		1.0612E+00
			55.00		1.0048E+00
			55.50		929.63E-03
			56.00		854.47E-03
			56.50		767.58E-03
			57.00		680.68E-03
			57.50		594.26E-03
			58.00		507.85E-03
			58.50		433.61E-03
			59.00		359.36E-03
			59.50		304.96E-03
			60.00		250.56E-03
			60.50		218.65E-03
			61.00		186.74E-03
			61.50		169.93E-03
			62.00		153.12E-03
			62.50		142.85E-03
			63.00		132.59E-03
			63.50		125.69E-03
			64.00		118.80E-03
			64.50		113.86E-03
			65.00		108.91E-03
			65.50		104.89E-03
			66.00		100.87E-03
			66.50		97.840E-03
			67.00		94.809E-03
			67.50		92.325E-03
			68.00		89.841E-03
			68.50		87.171E-03
			69.00		84.501E-03
			69.50		82.628E-03
			70.00		80.755E-03
			70.50		79.098E-03
			71.00		77.440E-03
			71.50		75.749E-03
			72.00		74.058E-03
			72.50		72.646E-03
			73.00		71.233E-03
			73.50		69.765E-03
			74.00		68.297E-03
			74.50		67.018E-03
			75.00		65.740E-03
			75.50		64.377E-03
			76.00		63.014E-03
			76.50		61.956E-03
			77.00		60.897E-03
			77.50		59.824E-03
			78.00		58.751E-03
			78.50		57.678E-03
			79.00		56.605E-03
			79.50		55.687E-03
			80.00		54.769E-03
			80.50		53.926E-03
			81.00		53.084E-03
			81.50		52.159E-03
			82.00		51.233E-03
			82.50		50.345E-03
			83.00		49.456E-03
			83.50		48.696E-03
			84.00		47.937E-03
			84.50		47.277E-03
			85.00		46.618E-03
			85.50		45.995E-03
			86.00		45.372E-03
			86.50		44.868E-03
			87.00		44.365E-03
			87.50		43.722E-03
			88.00		43.080E-03
			88.50		42.435E-03
			89.00		41.790E-03
			89.50		41.286E-03
			90.00		40.783E-03
			90.50		40.385E-03
			91.00		39.986E-03
		END_DATA
	END_SCAN  2
	BEGIN_SCAN  3
		TASK_NAME=tba PDD Profiles
		PROGRAM=WaterTankScans
		COMMENT=PDD + 5x X
		MEAS_DATE=09-Feb-2021 16:11:48
		LINAC=TRUEBEAMSN4791
		MODALITY=X
		ISOCENTER=1000.00
		INPLANE_AXIS=Y
		CROSSPLANE_AXIS=X
		DEPTH_AXIS=Depth
		INPLANE_AXIS_DIR=TARGET_GUN
		CROSSPLANE_AXIS_DIR=LEFT_RIGHT
		DEPTH_AXIS_DIR=UP_DOWN
		ENERGY=6.00
		NOMINAL_DMAX=15.00
		SSD=900.00
		SCD=450.00
		WEDGE_ANGLE=0.00
		FIELD_INPLANE=120.00
		FIELD_CROSSPLANE=120.00
		FIELD_TYPE=RECTANGULAR
		GANTRY=0.00
		GANTRY_UPRIGHT_POSITION=0
		GANTRY_ROTATION=CW
		COLL_ANGLE=0.00
		COLL_OFFSET_INPLANE=0.00
		COLL_OFFSET_CROSSPLANE=0.00
		SCAN_DEVICE=BeamScan
		SCAN_DEVICE_SETUP=BARA_LEFT_RIGHT
		ELECTROMETER=BeamScan
		RANGE_FIELD=LOW
		RANGE_REFERENCE=MEDIUM
		DETECTOR=THIMBLE_CHAMBER
		DETECTOR_SUBCODE=SEMIFLEX
		DETECTOR_RADIUS=2.40
		DETECTOR_NAME=PTW 31021 Semiflex 3D (1)
		DETECTOR_SN=142316
		DETECTOR_CALIBRATION=588000000.00
		DETECTOR_IS_CALIBRATED=1
		DETECTOR_REFERENCE=THIMBLE_CHAMBER
		DETECTOR_REFERENCE_SUBCODE=SEMIFLEX
		DETECTOR_REFERENCE_RADIUS=2.75
		DETECTOR_REFERENCE_NAME=PTW 31010 Semiflex (1)
		DETECTOR_REFERENCE_SN=—
		DETECTOR_REFERENCE_IS_CALIBRATED=0
		DETECTOR_REFERENCE_CALIBRATION=303000000.00
		DETECTOR_HV=400.0
		DETECTOR_REFERENCE_HV=400.0
		DETECTOR_ORIENTATION=HORIZONTAL
		FILTER=FFF
		SCAN_SPEED_PROFILE=12.50
		SCAN_PROF_SPEED_DEP=DEPTH
		SCAN_SPEED_PDD=12.50
		SCAN_PDD_SPEED_DEP=ENERGY
		DETECTOR_TYPE=T31021
		REF_FIELD_DEPTH=100.00
		REF_FIELD_DEFINED=ISOCENTER
		REF_FIELD_INPLANE=100.00
		REF_FIELD_CROSSPLANE=100.00
		REF_SCAN_POSITIONS=-85.00;-84.00;-83.00;-82.00;-81.00;-80.00;-79.00;-78.00;-77.00;-76.00;-75.00;-74.00;-73.00;-72.00;-71.00;-70.00;-69.00;-68.00;-67.00;-66.00;-65.00;-64.00;-63.00;-62.00;-61.00;-60.00;-59.00;-58.00;-57.00;-56.00;-55.00;-54.00;-53.00;-52.00;-51.00;-50.00;-49.00;-48.00;-47.00;-46.00;-45.00;-44.00;-43.00;-42.00;-41.00;-40.00;-39.00;-38.00;-37.00;-36.00;-35.00;-34.00;-33.00;-32.00;-31.00;-30.00;-29.00;-28.00;-27.00;-26.00;-25.00;-24.00;-23.00;-22.00;-21.00;-20.00;-19.00;-18.00;-17.00;-16.00;-15.00;-14.00;-13.00;-12.00;-11.00;-10.00;-9.00;-8.00;-7.00;-6.00;-5.00;-4.00;-3.00;-2.00;-1.00;0.00;1.00;2.00;3.00;4.00;5.00;6.00;7.00;8.00;9.00;10.00;11.00;12.00;13.00;14.00;15.00;16.00;17.00;18.00;19.00;20.00;21.00;22.00;23.00;24.00;25.00;26.00;27.00;28.00;29.00;30.00;31.00;32.00;33.00;34.00;35.00;36.00;37.00;38.00;39.00;40.00;41.00;42.00;43.00;44.00;45.00;46.00;47.00;48.00;49.00;50.00;51.00;52.00;53.00;54.00;55.00;56.00;57.00;58.00;59.00;60.00;61.00;62.00;63.00;64.00;65.00;66.00;67.00;68.00;69.00;70.00;71.00;72.00;73.00;74.00;75.00;76.00;77.00;78.00;79.00;80.00;81.00;82.00;83.00;84.00;85.00;
		REF_OVERSCAN_FACTOR=1.00
		SCAN_CURVETYPE=CROSSPLANE_PROFILE
		SCAN_DEPTH=100.00
		SCAN_OFFAXIS_INPLANE=0.00
		SCAN_OFFAXIS_CROSSPLANE=0.00
		SCAN_ANGLE=0.00
		SCAN_DIAGONAL=NOT_DIAGONAL
		SCAN_DIRECTION=POSITIVE
		MEAS_MEDIUM=WATER
		MEAS_PRESET=MEAS_CONTINUOUS_REFERENCE_SCAN
		MEAS_TIME=0.080
		MEAS_UNIT=A.U.
		INCLINATION_ANGLE=0.00
		PRESSURE=1013.25
		TEMPERATURE=20.00
		NORM_TEMPERATURE=20.00
		CORRECTION_FACTOR=1.0000
		EXPECTED_MAX_DOSE_RATE=3.00
		EPOM_DEPTH_SHIFT=0.2
		EPOM_MODE=SHIFT_PROTOCOL
		CORRECTIONS=SMOOTHED_CORR;SYMMETRY_CORR;INTERPOLATED_CORR;
		BEGIN_DATA
			-95.00		47.874E-03
			-94.50		48.678E-03
			-94.00		49.481E-03
			-93.50		50.078E-03
			-93.00		50.675E-03
			-92.50		51.384E-03
			-92.00		52.093E-03
			-91.50		52.770E-03
			-91.00		53.447E-03
			-90.50		54.186E-03
			-90.00		54.924E-03
			-89.50		55.655E-03
			-89.00		56.386E-03
			-88.50		57.177E-03
			-88.00		57.969E-03
			-87.50		58.910E-03
			-87.00		59.851E-03
			-86.50		60.760E-03
			-86.00		61.670E-03
			-85.50		62.522E-03
			-85.00		63.373E-03
			-84.50		64.312E-03
			-84.00		65.251E-03
			-83.50		66.091E-03
			-83.00		66.930E-03
			-82.50		68.107E-03
			-82.00		69.284E-03
			-81.50		70.388E-03
			-81.00		71.492E-03
			-80.50		72.625E-03
			-80.00		73.757E-03
			-79.50		75.103E-03
			-79.00		76.449E-03
			-78.50		77.785E-03
			-78.00		79.122E-03
			-77.50		80.339E-03
			-77.00		81.556E-03
			-76.50		83.158E-03
			-76.00		84.760E-03
			-75.50		86.130E-03
			-75.00		87.499E-03
			-74.50		88.989E-03
			-74.00		90.480E-03
			-73.50		92.334E-03
			-73.00		94.188E-03
			-72.50		95.891E-03
			-72.00		97.595E-03
			-71.50		99.652E-03
			-71.00		101.71E-03
			-70.50		104.30E-03
			-70.00		106.88E-03
			-69.50		109.75E-03
			-69.00		112.62E-03
			-68.50		115.44E-03
			-68.00		118.26E-03
			-67.50		122.43E-03
			-67.00		126.59E-03
			-66.50		132.10E-03
			-66.00		137.62E-03
			-65.50		145.51E-03
			-65.00		153.41E-03
			-64.50		166.22E-03
			-64.00		179.02E-03
			-63.50		202.29E-03
			-63.00		225.56E-03
			-62.50		263.04E-03
			-62.00		300.53E-03
			-61.50		350.70E-03
			-61.00		400.86E-03
			-60.50		458.48E-03
			-60.00		516.10E-03
			-59.50		575.02E-03
			-59.00		633.93E-03
			-58.50		685.02E-03
			-58.00		736.11E-03
			-57.50		775.00E-03
			-57.00		813.89E-03
			-56.50		838.28E-03
			-56.00		862.68E-03
			-55.50		877.41E-03
			-55.00		892.14E-03
			-54.50		901.32E-03
			-54.00		910.51E-03
			-53.50		917.34E-03
			-53.00		924.18E-03
			-52.50		929.40E-03
			-52.00		934.63E-03
			-51.50		939.19E-03
			-51.00		943.76E-03
			-50.50		948.07E-03
			-50.00		952.39E-03
			-49.50		956.41E-03
			-49.00		960.43E-03
			-48.50		964.12E-03
			-48.00		967.81E-03
			-47.50		971.31E-03
			-47.00		974.81E-03
			-46.50		978.16E-03
			-46.00		981.50E-03
			-45.50		984.48E-03
			-45.00		987.46E-03
			-44.50		990.09E-03
			-44.00		992.72E-03
			-43.50		995.33E-03
			-43.00		997.94E-03
			-42.50		1.0007E+00
			-42.00		1.0034E+00
			-41.50		1.0062E+00
			-41.00		1.0091E+00
			-40.50		1.0119E+00
			-40.00		1.0147E+00
			-39.50		1.0172E+00
			-39.00		1.0196E+00
			-38.50		1.0217E+00
			-38.00		1.0239E+00
			-37.50		1.0260E+00
			-37.00		1.0281E+00
			-36.50		1.0303E+00
			-36.00		1.0325E+00
			-35.50		1.0347E+00
			-35.00		1.0368E+00
			-34.50		1.0389E+00
			-34.00		1.0411E+00
			-33.50		1.0434E+00
			-33.00		1.0457E+00
			-32.50		1.0480E+00
			-32.00		1.0503E+00
			-31.50		1.0524E+00
			-31.00		1.0546E+00
			-30.50		1.0565E+00
			-30.00		1.0584E+00
			-29.50		1.0601E+00
			-29.00		1.0617E+00
			-28.50		1.0632E+00
			-28.00		1.0647E+00
			-27.50		1.0661E+00
			-27.00		1.0675E+00
			-26.50		1.0691E+00
			-26.00		1.0706E+00
			-25.50		1.0725E+00
			-25.00		1.0743E+00
			-24.50		1.0763E+00
			-24.00		1.0784E+00
			-23.50		1.0803E+00
			-23.00		1.0821E+00
			-22.50		1.0835E+00
			-22.00		1.0849E+00
			-21.50		1.0860E+00
			-21.00		1.0870E+00
			-20.50		1.0882E+00
			-20.00		1.0895E+00
			-19.50		1.0910E+00
			-19.00		1.0924E+00
			-18.50		1.0940E+00
			-18.00		1.0956E+00
			-17.50		1.0970E+00
			-17.00		1.0983E+00
			-16.50		1.0994E+00
			-16.00		1.1006E+00
			-15.50		1.1016E+00
			-15.00		1.1027E+00
			-14.50		1.1035E+00
			-14.00		1.1044E+00
			-13.50		1.1049E+00
			-13.00		1.1054E+00
			-12.50		1.1058E+00
			-12.00		1.1063E+00
			-11.50		1.1072E+00
			-11.00		1.1080E+00
			-10.50		1.1092E+00
			-10.00		1.1104E+00
			-9.50		1.1115E+00
			-9.00		1.1126E+00
			-8.50		1.1133E+00
			-8.00		1.1140E+00
			-7.50		1.1143E+00
			-7.00		1.1146E+00
			-6.50		1.1147E+00
			-6.00		1.1147E+00
			-5.50		1.1148E+00
			-5.00		1.1149E+00
			-4.50		1.1154E+00
			-4.00		1.1158E+00
			-3.50		1.1163E+00
			-3.00		1.1169E+00
			-2.50		1.1173E+00
			-2.00		1.1177E+00
			-1.50		1.1177E+00
			-1.00		1.1177E+00
			-0.50		1.1176E+00
			0.00		1.1175E+00
			0.50		1.1176E+00
			1.00		1.1177E+00
			1.50		1.1177E+00
			2.00		1.1177E+00
			2.50		1.1173E+00
			3.00		1.1169E+00
			3.50		1.1163E+00
			4.00		1.1158E+00
			4.50		1.1154E+00
			5.00		1.1149E+00
			5.50		1.1148E+00
			6.00		1.1147E+00
			6.50		1.1147E+00
			7.00		1.1146E+00
			7.50		1.1143E+00
			8.00		1.1140E+00
			8.50		1.1133E+00
			9.00		1.1126E+00
			9.50		1.1115E+00
			10.00		1.1104E+00
			10.50		1.1092E+00
			11.00		1.1080E+00
			11.50		1.1072E+00
			12.00		1.1063E+00
			12.50		1.1058E+00
			13.00		1.1054E+00
			13.50		1.1049E+00
			14.00		1.1044E+00
			14.50		1.1035E+00
			15.00		1.1027E+00
