BEGIN_SCAN_DATA
	FORMAT=CC-Export V1.9                  
	FILE_CREATION_DATE=26-Jul-2022 10:36:34
	LAST_MODIFIED=26-Jul-2022 10:36:34
	BEGIN_SCAN  1
		TASK_NAME=tba PDD Profiles
		PROGRAM=WaterTankScans
		COMMENT=PDD + 5x X
		MEAS_DATE=09-Feb-2021 16:26:05
		LINAC=TRUEBEAMSN4791
		MODALITY=X
		ISOCENTER=1000.00
		INPLANE_AXIS=Y
		CROSSPLANE_AXIS=X
		DEPTH_AXIS=Depth
		INPLANE_AXIS_DIR=TARGET_GUN
		CROSSPLANE_AXIS_DIR=LEFT_RIGHT
		DEPTH_AXIS_DIR=UP_DOWN
		ENERGY=6.00
		NOMINAL_DMAX=15.00
		SSD=900.00
		SCD=450.00
		WEDGE_ANGLE=0.00
		FIELD_INPLANE=300.00
		FIELD_CROSSPLANE=300.00
		FIELD_TYPE=RECTANGULAR
		GANTRY=0.00
		GANTRY_UPRIGHT_POSITION=0
		GANTRY_ROTATION=CW
		COLL_ANGLE=0.00
		COLL_OFFSET_INPLANE=0.00
		COLL_OFFSET_CROSSPLANE=0.00
		SCAN_DEVICE=BeamScan
		SCAN_DEVICE_SETUP=BARA_LEFT_RIGHT
		ELECTROMETER=BeamScan
		RANGE_FIELD=LOW
		RANGE_REFERENCE=MEDIUM
		DETECTOR=THIMBLE_CHAMBER
		DETECTOR_SUBCODE=SEMIFLEX
		DETECTOR_RADIUS=2.40
		DETECTOR_NAME=PTW 31021 Semiflex 3D (1)
		DETECTOR_SN=142316
		DETECTOR_CALIBRATION=588000000.00
		DETECTOR_IS_CALIBRATED=1
		DETECTOR_REFERENCE=THIMBLE_CHAMBER
		DETECTOR_REFERENCE_SUBCODE=SEMIFLEX
		DETECTOR_REFERENCE_RADIUS=2.75
		DETECTOR_REFERENCE_NAME=PTW 31010 Semiflex (1)
		DETECTOR_REFERENCE_SN=—
		DETECTOR_REFERENCE_IS_CALIBRATED=0
		DETECTOR_REFERENCE_CALIBRATION=303000000.00
		DETECTOR_HV=400.0
		DETECTOR_REFERENCE_HV=400.0
		DETECTOR_ORIENTATION=HORIZONTAL
		FILTER=FFF
		SCAN_SPEED_PROFILE=12.50
		SCAN_PROF_SPEED_DEP=DEPTH
		SCAN_SPEED_PDD=12.50
		SCAN_PDD_SPEED_DEP=ENERGY
		DETECTOR_TYPE=T31021
		REF_FIELD_DEPTH=100.00
		REF_FIELD_DEFINED=ISOCENTER
		REF_FIELD_INPLANE=100.00
		REF_FIELD_CROSSPLANE=100.00
		REF_SCAN_POSITIONS=-85.00;-84.00;-83.00;-82.00;-81.00;-80.00;-79.00;-78.00;-77.00;-76.00;-75.00;-74.00;-73.00;-72.00;-71.00;-70.00;-69.00;-68.00;-67.00;-66.00;-65.00;-64.00;-63.00;-62.00;-61.00;-60.00;-59.00;-58.00;-57.00;-56.00;-55.00;-54.00;-53.00;-52.00;-51.00;-50.00;-49.00;-48.00;-47.00;-46.00;-45.00;-44.00;-43.00;-42.00;-41.00;-40.00;-39.00;-38.00;-37.00;-36.00;-35.00;-34.00;-33.00;-32.00;-31.00;-30.00;-29.00;-28.00;-27.00;-26.00;-25.00;-24.00;-23.00;-22.00;-21.00;-20.00;-19.00;-18.00;-17.00;-16.00;-15.00;-14.00;-13.00;-12.00;-11.00;-10.00;-9.00;-8.00;-7.00;-6.00;-5.00;-4.00;-3.00;-2.00;-1.00;0.00;1.00;2.00;3.00;4.00;5.00;6.00;7.00;8.00;9.00;10.00;11.00;12.00;13.00;14.00;15.00;16.00;17.00;18.00;19.00;20.00;21.00;22.00;23.00;24.00;25.00;26.00;27.00;28.00;29.00;30.00;31.00;32.00;33.00;34.00;35.00;36.00;37.00;38.00;39.00;40.00;41.00;42.00;43.00;44.00;45.00;46.00;47.00;48.00;49.00;50.00;51.00;52.00;53.00;54.00;55.00;56.00;57.00;58.00;59.00;60.00;61.00;62.00;63.00;64.00;65.00;66.00;67.00;68.00;69.00;70.00;71.00;72.00;73.00;74.00;75.00;76.00;77.00;78.00;79.00;80.00;81.00;82.00;83.00;84.00;85.00;
		REF_OVERSCAN_FACTOR=1.00
		SCAN_CURVETYPE=CROSSPLANE_PROFILE
		SCAN_DEPTH=15.00
		SCAN_OFFAXIS_INPLANE=0.00
		SCAN_OFFAXIS_CROSSPLANE=0.00
		SCAN_ANGLE=0.00
		SCAN_DIAGONAL=NOT_DIAGONAL
		SCAN_DIRECTION=POSITIVE
		MEAS_MEDIUM=WATER
		MEAS_PRESET=MEAS_CONTINUOUS_REFERENCE_SCAN
		MEAS_TIME=0.080
		MEAS_UNIT=A.U.
		INCLINATION_ANGLE=0.00
		PRESSURE=1013.25
		TEMPERATURE=20.00
		NORM_TEMPERATURE=20.00
		CORRECTION_FACTOR=1.0000
		EXPECTED_MAX_DOSE_RATE=3.00
		EPOM_DEPTH_SHIFT=0.2
		EPOM_MODE=SHIFT_PROTOCOL
		CORRECTIONS=SMOOTHED_CORR;SYMMETRY_CORR;INTERPOLATED_CORR;
		BEGIN_DATA
			-170.00		49.300E-03
			-169.50		49.883E-03
			-169.00		50.466E-03
			-168.50		50.935E-03
			-168.00		51.405E-03
			-167.50		52.065E-03
			-167.00		52.726E-03
			-166.50		53.142E-03
			-166.00		53.558E-03
			-165.50		54.129E-03
			-165.00		54.701E-03
			-164.50		55.323E-03
			-164.00		55.945E-03
			-163.50		56.607E-03
			-163.00		57.269E-03
			-162.50		57.804E-03
			-162.00		58.338E-03
			-161.50		59.111E-03
			-161.00		59.884E-03
			-160.50		60.627E-03
			-160.00		61.371E-03
			-159.50		61.992E-03
			-159.00		62.613E-03
			-158.50		63.485E-03
			-158.00		64.357E-03
			-157.50		65.283E-03
			-157.00		66.209E-03
			-156.50		67.138E-03
			-156.00		68.066E-03
			-155.50		69.047E-03
			-155.00		70.029E-03
			-154.50		70.810E-03
			-154.00		71.591E-03
			-153.50		72.732E-03
			-153.00		73.873E-03
			-152.50		74.814E-03
			-152.00		75.755E-03
			-151.50		77.046E-03
			-151.00		78.337E-03
			-150.50		79.446E-03
			-150.00		80.556E-03
			-149.50		82.192E-03
			-149.00		83.828E-03
			-148.50		85.443E-03
			-148.00		87.059E-03
			-147.50		89.203E-03
			-147.00		91.348E-03
			-146.50		93.739E-03
			-146.00		96.130E-03
			-145.50		99.445E-03
			-145.00		102.76E-03
			-144.50		107.05E-03
			-144.00		111.34E-03
			-143.50		117.78E-03
			-143.00		124.23E-03
			-142.50		134.41E-03
			-142.00		144.58E-03
			-141.50		163.81E-03
			-141.00		183.03E-03
			-140.50		222.12E-03
			-140.00		261.22E-03
			-139.50		323.72E-03
			-139.00		386.22E-03
			-138.50		465.31E-03
			-138.00		544.41E-03
			-137.50		632.00E-03
			-137.00		719.60E-03
			-136.50		801.20E-03
			-136.00		882.79E-03
			-135.50		949.34E-03
			-135.00		1.0159E+00
			-134.50		1.0590E+00
			-134.00		1.1021E+00
			-133.50		1.1258E+00
			-133.00		1.1494E+00
			-132.50		1.1621E+00
			-132.00		1.1748E+00
			-131.50		1.1834E+00
			-131.00		1.1921E+00
			-130.50		1.1990E+00
			-130.00		1.2058E+00
			-129.50		1.2109E+00
			-129.00		1.2159E+00
			-128.50		1.2204E+00
			-128.00		1.2250E+00
			-127.50		1.2284E+00
			-127.00		1.2318E+00
			-126.50		1.2357E+00
			-126.00		1.2395E+00
			-125.50		1.2433E+00
			-125.00		1.2471E+00
			-124.50		1.2506E+00
			-124.00		1.2542E+00
			-123.50		1.2575E+00
			-123.00		1.2608E+00
			-122.50		1.2638E+00
			-122.00		1.2669E+00
			-121.50		1.2698E+00
			-121.00		1.2727E+00
			-120.50		1.2754E+00
			-120.00		1.2782E+00
			-119.50		1.2811E+00
			-119.00		1.2840E+00
			-118.50		1.2872E+00
			-118.00		1.2903E+00
			-117.50		1.2933E+00
			-117.00		1.2963E+00
			-116.50		1.2991E+00
			-116.00		1.3019E+00
			-115.50		1.3047E+00
			-115.00		1.3075E+00
			-114.50		1.3105E+00
			-114.00		1.3134E+00
			-113.50		1.3164E+00
			-113.00		1.3194E+00
			-112.50		1.3224E+00
			-112.00		1.3253E+00
			-111.50		1.3282E+00
			-111.00		1.3311E+00
			-110.50		1.3340E+00
			-110.00		1.3368E+00
			-109.50		1.3396E+00
			-109.00		1.3423E+00
			-108.50		1.3451E+00
			-108.00		1.3480E+00
			-107.50		1.3511E+00
			-107.00		1.3542E+00
			-106.50		1.3572E+00
			-106.00		1.3601E+00
			-105.50		1.3630E+00
			-105.00		1.3659E+00
			-104.50		1.3689E+00
			-104.00		1.3719E+00
			-103.50		1.3747E+00
			-103.00		1.3775E+00
			-102.50		1.3802E+00
			-102.00		1.3828E+00
			-101.50		1.3855E+00
			-101.00		1.3882E+00
			-100.50		1.3911E+00
			-100.00		1.3940E+00
			-99.50		1.3971E+00
			-99.00		1.4002E+00
			-98.50		1.4033E+00
			-98.00		1.4065E+00
			-97.50		1.4097E+00
			-97.00		1.4129E+00
			-96.50		1.4158E+00
			-96.00		1.4188E+00
			-95.50		1.4217E+00
			-95.00		1.4246E+00
			-94.50		1.4275E+00
			-94.00		1.4304E+00
			-93.50		1.4336E+00
			-93.00		1.4367E+00
			-92.50		1.4400E+00
			-92.00		1.4433E+00
			-91.50		1.4464E+00
			-91.00		1.4495E+00
			-90.50		1.4525E+00
			-90.00		1.4555E+00
			-89.50		1.4584E+00
			-89.00		1.4613E+00
			-88.50		1.4641E+00
			-88.00		1.4668E+00
			-87.50		1.4694E+00
			-87.00		1.4721E+00
			-86.50		1.4749E+00
			-86.00		1.4777E+00
			-85.50		1.4808E+00
			-85.00		1.4838E+00
			-84.50		1.4868E+00
			-84.00		1.4898E+00
			-83.50		1.4927E+00
			-83.00		1.4957E+00
			-82.50		1.4988E+00
			-82.00		1.5019E+00
			-81.50		1.5052E+00
			-81.00		1.5085E+00
			-80.50		1.5117E+00
			-80.00		1.5150E+00
			-79.50		1.5180E+00
			-79.00		1.5211E+00
			-78.50		1.5242E+00
			-78.00		1.5273E+00
			-77.50		1.5303E+00
			-77.00		1.5333E+00
			-76.50		1.5365E+00
			-76.00		1.5397E+00
			-75.50		1.5430E+00
			-75.00		1.5463E+00
			-74.50		1.5494E+00
			-74.00		1.5524E+00
			-73.50		1.5554E+00
			-73.00		1.5584E+00
			-72.50		1.5616E+00
			-72.00		1.5647E+00
			-71.50		1.5677E+00
			-71.00		1.5708E+00
			-70.50		1.5737E+00
			-70.00		1.5765E+00
			-69.50		1.5795E+00
			-69.00		1.5824E+00
			-68.50		1.5857E+00
			-68.00		1.5891E+00
			-67.50		1.5926E+00
			-67.00		1.5961E+00
			-66.50		1.5994E+00
			-66.00		1.6028E+00
			-65.50		1.6061E+00
			-65.00		1.6093E+00
			-64.50		1.6127E+00
			-64.00		1.6161E+00
			-63.50		1.6193E+00
			-63.00		1.6225E+00
			-62.50		1.6257E+00
			-62.00		1.6289E+00
			-61.50		1.6320E+00
			-61.00		1.6350E+00
			-60.50		1.6379E+00
			-60.00		1.6408E+00
			-59.50		1.6437E+00
			-59.00		1.6465E+00
			-58.50		1.6495E+00
			-58.00		1.6525E+00
			-57.50		1.6559E+00
			-57.00		1.6593E+00
			-56.50		1.6628E+00
			-56.00		1.6662E+00
			-55.50		1.6694E+00
			-55.00		1.6725E+00
			-54.50		1.6753E+00
			-54.00		1.6782E+00
			-53.50		1.6811E+00
			-53.00		1.6839E+00
			-52.50		1.6869E+00
			-52.00		1.6900E+00
			-51.50		1.6932E+00
			-51.00		1.6963E+00
			-50.50		1.6995E+00
			-50.00		1.7027E+00
			-49.50		1.7059E+00
			-49.00		1.7090E+00
			-48.50		1.7120E+00
			-48.00		1.7150E+00
			-47.50		1.7181E+00
			-47.00		1.7211E+00
			-46.50		1.7242E+00
			-46.00		1.7274E+00
			-45.50		1.7306E+00
			-45.00		1.7339E+00
			-44.50		1.7370E+00
			-44.00		1.7401E+00
			-43.50		1.7431E+00
			-43.00		1.7461E+00
			-42.50		1.7490E+00
			-42.00		1.7520E+00
			-41.50		1.7549E+00
			-41.00		1.7578E+00
			-40.50		1.7608E+00
			-40.00		1.7639E+00
			-39.50		1.7669E+00
			-39.00		1.7699E+00
			-38.50		1.7729E+00
			-38.00		1.7758E+00
			-37.50		1.7787E+00
			-37.00		1.7817E+00
			-36.50		1.7845E+00
			-36.00		1.7872E+00
			-35.50		1.7900E+00
			-35.00		1.7928E+00
			-34.50		1.7957E+00
			-34.00		1.7986E+00
			-33.50		1.8016E+00
			-33.00		1.8046E+00
			-32.50		1.8075E+00
			-32.00		1.8104E+00
			-31.50		1.8131E+00
			-31.00		1.8159E+00
			-30.50		1.8185E+00
			-30.00		1.8212E+00
			-29.50		1.8239E+00
			-29.00		1.8266E+00
			-28.50		1.8292E+00
			-28.00		1.8319E+00
			-27.50		1.8340E+00
			-27.00		1.8361E+00
			-26.50		1.8382E+00
			-26.00		1.8404E+00
			-25.50		1.8429E+00
			-25.00		1.8454E+00
			-24.50		1.8478E+00
			-24.00		1.8503E+00
			-23.50		1.8526E+00
			-23.00		1.8548E+00
			-22.50		1.8568E+00
			-22.00		1.8588E+00
			-21.50		1.8606E+00
			-21.00		1.8624E+00
			-20.50		1.8644E+00
			-20.00		1.8665E+00
			-19.50		1.8690E+00
			-19.00		1.8714E+00
			-18.50		1.8738E+00
			-18.00		1.8763E+00
			-17.50		1.8783E+00
			-17.00		1.8803E+00
			-16.50		1.8820E+00
			-16.00		1.8836E+00
			-15.50		1.8849E+00
			-15.00		1.8863E+00
			-14.50		1.8876E+00
			-14.00		1.8889E+00
			-13.50		1.8903E+00
			-13.00		1.8917E+00
			-12.50		1.8933E+00
			-12.00		1.8949E+00
			-11.50		1.8963E+00
			-11.00		1.8976E+00
			-10.50		1.8989E+00
			-10.00		1.9002E+00
			-9.50		1.9016E+00
			-9.00		1.9029E+00
			-8.50		1.9039E+00
			-8.00		1.9050E+00
			-7.50		1.9056E+00
			-7.00		1.9062E+00
			-6.50		1.9067E+00
			-6.00		1.9073E+00
			-5.50		1.9081E+00
			-5.00		1.9088E+00
			-4.50		1.9095E+00
			-4.00		1.9102E+00
			-3.50		1.9107E+00
			-3.00		1.9111E+00
			-2.50		1.9113E+00
			-2.00		1.9115E+00
			-1.50		1.9115E+00
			-1.00		1.9115E+00
			-0.50		1.9115E+00
			0.00		1.9115E+00
			0.50		1.9115E+00
			1.00		1.9115E+00
			1.50		1.9115E+00
			2.00		1.9115E+00
			2.50		1.9113E+00
			3.00		1.9111E+00
			3.50		1.9107E+00
			4.00		1.9102E+00
			4.50		1.9095E+00
			5.00		1.9088E+00
			5.50		1.9081E+00
			6.00		1.9073E+00
			6.50		1.9067E+00
			7.00		1.9062E+00
			7.50		1.9056E+00
			8.00		1.9050E+00
			8.50		1.9039E+00
			9.00		1.9029E+00
			9.50		1.9016E+00
			10.00		1.9002E+00
			10.50		1.8989E+00
			11.00		1.8976E+00
			11.50		1.8963E+00
			12.00		1.8949E+00
			12.50		1.8933E+00
			13.00		1.8917E+00
			13.50		1.8903E+00
			14.00		1.8889E+00
			14.50		1.8876E+00
			15.00		1.8863E+00
			15.50		1.8849E+00
			16.00		1.8836E+00
			16.50		1.8820E+00
			17.00		1.8803E+00
			17.50		1.8783E+00
			18.00		1.8763E+00
			18.50		1.8738E+00
			19.00		1.8714E+00
			19.50		1.8690E+00
			20.00		1.8665E+00
			20.50		1.8644E+00
			21.00		1.8624E+00
			21.50		1.8606E+00
			22.00		1.8588E+00
			22.50		1.8568E+00
			23.00		1.8548E+00
			23.50		1.8526E+00
			24.00		1.8503E+00
			24.50		1.8478E+00
			25.00		1.8454E+00
			25.50		1.8429E+00
			26.00		1.8404E+00
			26.50		1.8382E+00
			27.00		1.8361E+00
			27.50		1.8340E+00
			28.00		1.8319E+00
			28.50		1.8292E+00
			29.00		1.8266E+00
			29.50		1.8239E+00
			30.00		1.8212E+00
			30.50		1.8185E+00
			31.00		1.8159E+00
			31.50		1.8131E+00
			32.00		1.8104E+00
			32.50		1.8075E+00
			33.00		1.8046E+00
			33.50		1.8016E+00
			34.00		1.7986E+00
			34.50		1.7957E+00
			35.00		1.7928E+00
			35.50		1.7900E+00
			36.00		1.7872E+00
			36.50		1.7845E+00
			37.00		1.7817E+00
			37.50		1.7787E+00
			38.00		1.7758E+00
			38.50		1.7729E+00
			39.00		1.7699E+00
			39.50		1.7669E+00
			40.00		1.7639E+00
			40.50		1.7608E+00
			41.00		1.7578E+00
			41.50		1.7549E+00
			42.00		1.7520E+00
			42.50		1.7490E+00
			43.00		1.7461E+00
			43.50		1.7431E+00
			44.00		1.7401E+00
			44.50		1.7370E+00
			45.00		1.7339E+00
			45.50		1.7306E+00
			46.00		1.7274E+00
			46.50		1.7242E+00
			47.00		1.7211E+00
			47.50		1.7181E+00
			48.00		1.7150E+00
			48.50		1.7120E+00
			49.00		1.7090E+00
			49.50		1.7059E+00
			50.00		1.7027E+00
			50.50		1.6995E+00
			51.00		1.6963E+00
			51.50		1.6932E+00
			52.00		1.6900E+00
			52.50		1.6869E+00
			53.00		1.6839E+00
			53.50		1.6811E+00
			54.00		1.6782E+00
			54.50		1.6753E+00
			55.00		1.6725E+00
			55.50		1.6694E+00
			56.00		1.6662E+00
			56.50		1.6628E+00
			57.00		1.6593E+00
			57.50		1.6559E+00
			58.00		1.6525E+00
			58.50		1.6495E+00
			59.00		1.6465E+00
			59.50		1.6437E+00
			60.00		1.6408E+00
			60.50		1.6379E+00
			61.00		1.6350E+00
			61.50		1.6320E+00
			62.00		1.6289E+00
			62.50		1.6257E+00
			63.00		1.6225E+00
			63.50		1.6193E+00
			64.00		1.6161E+00
			64.50		1.6127E+00
			65.00		1.6093E+00
			65.50		1.6061E+00
			66.00		1.6028E+00
			66.50		1.5994E+00
			67.00		1.5961E+00
			67.50		1.5926E+00
			68.00		1.5891E+00
			68.50		1.5857E+00
			69.00		1.5824E+00
			69.50		1.5795E+00
			70.00		1.5765E+00
			70.50		1.5737E+00
			71.00		1.5708E+00
			71.50		1.5677E+00
			72.00		1.5647E+00
			72.50		1.5616E+00
			73.00		1.5584E+00
			73.50		1.5554E+00
			74.00		1.5524E+00
			74.50		1.5494E+00
			75.00		1.5463E+00
			75.50		1.5430E+00
			76.00		1.5397E+00
			76.50		1.5365E+00
			77.00		1.5333E+00
			77.50		1.5303E+00
			78.00		1.5273E+00
			78.50		1.5242E+00
			79.00		1.5211E+00
			79.50		1.5180E+00
			80.00		1.5150E+00
			80.50		1.5117E+00
			81.00		1.5085E+00
			81.50		1.5052E+00
			82.00		1.5019E+00
			82.50		1.4988E+00
			83.00		1.4957E+00
			83.50		1.4927E+00
			84.00		1.4898E+00
			84.50		1.4868E+00
			85.00		1.4838E+00
			85.50		1.4808E+00
			86.00		1.4777E+00
			86.50		1.4749E+00
			87.00		1.4721E+00
			87.50		1.4694E+00
			88.00		1.4668E+00
			88.50		1.4641E+00
			89.00		1.4613E+00
			89.50		1.4584E+00
			90.00		1.4555E+00
			90.50		1.4525E+00
			91.00		1.4495E+00
			91.50		1.4464E+00
			92.00		1.4433E+00
			92.50		1.4400E+00
			93.00		1.4367E+00
			93.50		1.4336E+00
			94.00		1.4304E+00
			94.50		1.4275E+00
			95.00		1.4246E+00
			95.50		1.4217E+00
			96.00		1.4188E+00
			96.50		1.4158E+00
			97.00		1.4129E+00
			97.50		1.4097E+00
			98.00		1.4065E+00
			98.50		1.4033E+00
			99.00		1.4002E+00
			99.50		1.3971E+00
			100.00		1.3940E+00
			100.50		1.3911E+00
			101.00		1.3882E+00
			101.50		1.3855E+00
			102.00		1.3828E+00
			102.50		1.3802E+00
			103.00		1.3775E+00
			103.50		1.3747E+00
			104.00		1.3719E+00
			104.50		1.3689E+00
			105.00		1.3659E+00
			105.50		1.3630E+00
			106.00		1.3601E+00
			106.50		1.3572E+00
			107.00		1.3542E+00
			107.50		1.3511E+00
			108.00		1.3480E+00
			108.50		1.3451E+00
			109.00		1.3423E+00
			109.50		1.3396E+00
			110.00		1.3368E+00
			110.50		1.3340E+00
			111.00		1.3311E+00
			111.50		1.3282E+00
			112.00		1.3253E+00
			112.50		1.3224E+00
			113.00		1.3194E+00
			113.50		1.3164E+00
			114.00		1.3134E+00
			114.50		1.3105E+00
			115.00		1.3075E+00
			115.50		1.3047E+00
			116.00		1.3019E+00
			116.50		1.2991E+00
			117.00		1.2963E+00
			117.50		1.2933E+00
			118.00		1.2903E+00
			118.50		1.2872E+00
			119.00		1.2840E+00
			119.50		1.2811E+00
			120.00		1.2782E+00
			120.50		1.2754E+00
			121.00		1.2727E+00
			121.50		1.2698E+00
			122.00		1.2669E+00
			122.50		1.2638E+00
			123.00		1.2608E+00
			123.50		1.2575E+00
			124.00		1.2542E+00
			124.50		1.2506E+00
			125.00		1.2471E+00
			125.50		1.2433E+00
			126.00		1.2395E+00
			126.50		1.2357E+00
			127.00		1.2318E+00
			127.50		1.2284E+00
			128.00		1.2250E+00
			128.50		1.2204E+00
			129.00		1.2159E+00
			129.50		1.2109E+00
			130.00		1.2058E+00
			130.50		1.1990E+00
			131.00		1.1921E+00
			131.50		1.1834E+00
			132.00		1.1748E+00
			132.50		1.1621E+00
			133.00		1.1494E+00
			133.50		1.1258E+00
			134.00		1.1021E+00
			134.50		1.0590E+00
			135.00		1.0159E+00
			135.50		949.34E-03
			136.00		882.79E-03
			136.50		801.20E-03
			137.00		719.60E-03
			137.50		632.00E-03
			138.00		544.41E-03
			138.50		465.31E-03
			139.00		386.22E-03
			139.50		323.72E-03
			140.00		261.22E-03
			140.50		222.12E-03
			141.00		183.03E-03
			141.50		163.81E-03
			142.00		144.58E-03
			142.50		134.41E-03
			143.00		124.23E-03
			143.50		117.78E-03
			144.00		111.34E-03
			144.50		107.05E-03
			145.00		102.76E-03
			145.50		99.445E-03
			146.00		96.130E-03
			146.50		93.739E-03
			147.00		91.348E-03
			147.50		89.203E-03
			148.00		87.059E-03
			148.50		85.443E-03
			149.00		83.828E-03
			149.50		82.192E-03
			150.00		80.556E-03
			150.50		79.446E-03
			151.00		78.337E-03
			151.50		77.046E-03
			152.00		75.755E-03
			152.50		74.814E-03
			153.00		73.873E-03
			153.50		72.732E-03
			154.00		71.591E-03
			154.50		70.810E-03
			155.00		70.029E-03
			155.50		69.047E-03
			156.00		68.066E-03
			156.50		67.138E-03
			157.00		66.209E-03
			157.50		65.283E-03
			158.00		64.357E-03
			158.50		63.485E-03
			159.00		62.613E-03
			159.50		61.992E-03
			160.00		61.371E-03
			160.50		60.627E-03
			161.00		59.884E-03
			161.50		59.111E-03
			162.00		58.338E-03
			162.50		57.804E-03
			163.00		57.269E-03
			163.50		56.607E-03
			164.00		55.945E-03
			164.50		55.323E-03
			165.00		54.701E-03
			165.50		54.129E-03
			166.00		53.558E-03
			166.50		53.142E-03
			167.00		52.726E-03
			167.50		52.065E-03
			168.00		51.405E-03
			168.50		50.935E-03
			169.00		50.466E-03
			169.50		49.883E-03
			170.00		49.300E-03
		END_DATA
	END_SCAN  1
	BEGIN_SCAN  2
		TASK_NAME=tba PDD Profiles
		PROGRAM=WaterTankScans
		COMMENT=PDD + 5x X
		MEAS_DATE=09-Feb-2021 16:26:41
		LINAC=TRUEBEAMSN4791
		MODALITY=X
		ISOCENTER=1000.00
		INPLANE_AXIS=Y
		CROSSPLANE_AXIS=X
		DEPTH_AXIS=Depth
		INPLANE_AXIS_DIR=TARGET_GUN
		CROSSPLANE_AXIS_DIR=LEFT_RIGHT
		DEPTH_AXIS_DIR=UP_DOWN
		ENERGY=6.00
		NOMINAL_DMAX=15.00
		SSD=900.00
		SCD=450.00
		WEDGE_ANGLE=0.00
		FIELD_INPLANE=300.00
		FIELD_CROSSPLANE=300.00
		FIELD_TYPE=RECTANGULAR
		GANTRY=0.00
		GANTRY_UPRIGHT_POSITION=0
		GANTRY_ROTATION=CW
		COLL_ANGLE=0.00
		COLL_OFFSET_INPLANE=0.00
		COLL_OFFSET_CROSSPLANE=0.00
		SCAN_DEVICE=BeamScan
		SCAN_DEVICE_SETUP=BARA_LEFT_RIGHT
		ELECTROMETER=BeamScan
		RANGE_FIELD=LOW
		RANGE_REFERENCE=MEDIUM
		DETECTOR=THIMBLE_CHAMBER
		DETECTOR_SUBCODE=SEMIFLEX
		DETECTOR_RADIUS=2.40
		DETECTOR_NAME=PTW 31021 Semiflex 3D (1)
		DETECTOR_SN=142316
		DETECTOR_CALIBRATION=588000000.00
		DETECTOR_IS_CALIBRATED=1
		DETECTOR_REFERENCE=THIMBLE_CHAMBER
		DETECTOR_REFERENCE_SUBCODE=SEMIFLEX
		DETECTOR_REFERENCE_RADIUS=2.75
		DETECTOR_REFERENCE_NAME=PTW 31010 Semiflex (1)
		DETECTOR_REFERENCE_SN=—
		DETECTOR_REFERENCE_IS_CALIBRATED=0
		DETECTOR_REFERENCE_CALIBRATION=303000000.00
		DETECTOR_HV=400.0
		DETECTOR_REFERENCE_HV=400.0
		DETECTOR_ORIENTATION=HORIZONTAL
		FILTER=FFF
		SCAN_SPEED_PROFILE=12.50
		SCAN_PROF_SPEED_DEP=DEPTH
		SCAN_SPEED_PDD=12.50
		SCAN_PDD_SPEED_DEP=ENERGY
		DETECTOR_TYPE=T31021
		REF_FIELD_DEPTH=100.00
		REF_FIELD_DEFINED=ISOCENTER
		REF_FIELD_INPLANE=100.00
		REF_FIELD_CROSSPLANE=100.00
		REF_SCAN_POSITIONS=-85.00;-84.00;-83.00;-82.00;-81.00;-80.00;-79.00;-78.00;-77.00;-76.00;-75.00;-74.00;-73.00;-72.00;-71.00;-70.00;-69.00;-68.00;-67.00;-66.00;-65.00;-64.00;-63.00;-62.00;-61.00;-60.00;-59.00;-58.00;-57.00;-56.00;-55.00;-54.00;-53.00;-52.00;-51.00;-50.00;-49.00;-48.00;-47.00;-46.00;-45.00;-44.00;-43.00;-42.00;-41.00;-40.00;-39.00;-38.00;-37.00;-36.00;-35.00;-34.00;-33.00;-32.00;-31.00;-30.00;-29.00;-28.00;-27.00;-26.00;-25.00;-24.00;-23.00;-22.00;-21.00;-20.00;-19.00;-18.00;-17.00;-16.00;-15.00;-14.00;-13.00;-12.00;-11.00;-10.00;-9.00;-8.00;-7.00;-6.00;-5.00;-4.00;-3.00;-2.00;-1.00;0.00;1.00;2.00;3.00;4.00;5.00;6.00;7.00;8.00;9.00;10.00;11.00;12.00;13.00;14.00;15.00;16.00;17.00;18.00;19.00;20.00;21.00;22.00;23.00;24.00;25.00;26.00;27.00;28.00;29.00;30.00;31.00;32.00;33.00;34.00;35.00;36.00;37.00;38.00;39.00;40.00;41.00;42.00;43.00;44.00;45.00;46.00;47.00;48.00;49.00;50.00;51.00;52.00;53.00;54.00;55.00;56.00;57.00;58.00;59.00;60.00;61.00;62.00;63.00;64.00;65.00;66.00;67.00;68.00;69.00;70.00;71.00;72.00;73.00;74.00;75.00;76.00;77.00;78.00;79.00;80.00;81.00;82.00;83.00;84.00;85.00;
		REF_OVERSCAN_FACTOR=1.00
		SCAN_CURVETYPE=CROSSPLANE_PROFILE
		SCAN_DEPTH=50.00
		SCAN_OFFAXIS_INPLANE=0.00
		SCAN_OFFAXIS_CROSSPLANE=0.00
		SCAN_ANGLE=0.00
		SCAN_DIAGONAL=NOT_DIAGONAL
		SCAN_DIRECTION=NEGATIVE
		MEAS_MEDIUM=WATER
		MEAS_PRESET=MEAS_CONTINUOUS_REFERENCE_SCAN
		MEAS_TIME=0.080
		MEAS_UNIT=A.U.
		INCLINATION_ANGLE=0.00
		PRESSURE=1013.25
		TEMPERATURE=20.00
		NORM_TEMPERATURE=20.00
		CORRECTION_FACTOR=1.0000
		EXPECTED_MAX_DOSE_RATE=3.00
		EPOM_DEPTH_SHIFT=0.2
		EPOM_MODE=SHIFT_PROTOCOL
		CORRECTIONS=SMOOTHED_CORR;SYMMETRY_CORR;INTERPOLATED_CORR;
		BEGIN_DATA
			-176.00		61.783E-03
			-175.50		62.472E-03
			-175.00		63.162E-03
			-174.50		63.956E-03
			-174.00		64.749E-03
			-173.50		65.550E-03
			-173.00		66.351E-03
			-172.50		66.977E-03
			-172.00		67.602E-03
			-171.50		68.232E-03
			-171.00		68.861E-03
			-170.50		69.837E-03
			-170.00		70.813E-03
			-169.50		71.831E-03
			-169.00		72.849E-03
			-168.50		73.567E-03
			-168.00		74.285E-03
			-167.50		75.401E-03
			-167.00		76.518E-03
			-166.50		77.339E-03
			-166.00		78.159E-03
			-165.50		79.214E-03
			-165.00		80.270E-03
			-164.50		81.211E-03
			-164.00		82.153E-03
			-163.50		83.195E-03
			-163.00		84.237E-03
			-162.50		85.409E-03
			-162.00		86.582E-03
			-161.50		88.030E-03
			-161.00		89.478E-03
			-160.50		90.751E-03
			-160.00		92.023E-03
			-159.50		93.258E-03
			-159.00		94.493E-03
			-158.50		95.960E-03
			-158.00		97.427E-03
			-157.50		99.064E-03
			-157.00		100.70E-03
			-156.50		102.18E-03
			-156.00		103.67E-03
			-155.50		105.14E-03
			-155.00		106.61E-03
			-154.50		108.61E-03
			-154.00		110.61E-03
			-153.50		112.85E-03
			-153.00		115.09E-03
			-152.50		117.62E-03
			-152.00		120.16E-03
			-151.50		123.25E-03
			-151.00		126.34E-03
			-150.50		129.84E-03
			-150.00		133.33E-03
			-149.50		138.15E-03
			-149.00		142.98E-03
			-148.50		149.87E-03
			-148.00		156.75E-03
			-147.50		167.74E-03
			-147.00		178.74E-03
			-146.50		197.96E-03
			-146.00		217.18E-03
			-145.50		252.45E-03
			-145.00		287.73E-03
			-144.50		338.19E-03
			-144.00		388.65E-03
			-143.50		450.94E-03
			-143.00		513.22E-03
			-142.50		579.82E-03
			-142.00		646.42E-03
			-141.50		707.11E-03
			-141.00		767.81E-03
			-140.50		814.77E-03
			-140.00		861.73E-03
			-139.50		891.78E-03
			-139.00		921.82E-03
			-138.50		939.06E-03
			-138.00		956.31E-03
			-137.50		966.96E-03
			-137.00		977.62E-03
			-136.50		985.13E-03
			-136.00		992.63E-03
			-135.50		998.57E-03
			-135.00		1.0045E+00
			-134.50		1.0099E+00
			-134.00		1.0152E+00
			-133.50		1.0195E+00
			-133.00		1.0238E+00
			-132.50		1.0280E+00
			-132.00		1.0322E+00
			-131.50		1.0362E+00
			-131.00		1.0403E+00
			-130.50		1.0438E+00
			-130.00		1.0473E+00
			-129.50		1.0504E+00
			-129.00		1.0535E+00
			-128.50		1.0565E+00
			-128.00		1.0594E+00
			-127.50		1.0626E+00
			-127.00		1.0658E+00
			-126.50		1.0691E+00
			-126.00		1.0724E+00
			-125.50		1.0757E+00
			-125.00		1.0790E+00
			-124.50		1.0819E+00
			-124.00		1.0849E+00
			-123.50		1.0877E+00
			-123.00		1.0905E+00
			-122.50		1.0933E+00
			-122.00		1.0961E+00
			-121.50		1.0989E+00
			-121.00		1.1016E+00
			-120.50		1.1045E+00
			-120.00		1.1074E+00
			-119.50		1.1101E+00
			-119.00		1.1128E+00
			-118.50		1.1152E+00
			-118.00		1.1177E+00
			-117.50		1.1202E+00
			-117.00		1.1227E+00
			-116.50		1.1253E+00
			-116.00		1.1279E+00
			-115.50		1.1307E+00
			-115.00		1.1334E+00
			-114.50		1.1361E+00
			-114.00		1.1388E+00
			-113.50		1.1414E+00
			-113.00		1.1441E+00
			-112.50		1.1467E+00
			-112.00		1.1493E+00
			-111.50		1.1518E+00
			-111.00		1.1544E+00
			-110.50		1.1571E+00
			-110.00		1.1597E+00
			-109.50		1.1625E+00
			-109.00		1.1653E+00
			-108.50		1.1680E+00
			-108.00		1.1707E+00
			-107.50		1.1732E+00
			-107.00		1.1757E+00
			-106.50		1.1781E+00
			-106.00		1.1806E+00
			-105.50		1.1831E+00
			-105.00		1.1855E+00
			-104.50		1.1881E+00
			-104.00		1.1908E+00
			-103.50		1.1937E+00
			-103.00		1.1966E+00
			-102.50		1.1992E+00
			-102.00		1.2018E+00
			-101.50		1.2041E+00
			-101.00		1.2065E+00
			-100.50		1.2089E+00
			-100.00		1.2113E+00
			-99.50		1.2139E+00
			-99.00		1.2164E+00
			-98.50		1.2190E+00
			-98.00		1.2217E+00
			-97.50		1.2241E+00
			-97.00		1.2266E+00
			-96.50		1.2291E+00
			-96.00		1.2315E+00
			-95.50		1.2342E+00
			-95.00		1.2369E+00
			-94.50		1.2397E+00
			-94.00		1.2424E+00
			-93.50		1.2452E+00
			-93.00		1.2480E+00
			-92.50		1.2507E+00
			-92.00		1.2534E+00
			-91.50		1.2562E+00
			-91.00		1.2589E+00
			-90.50		1.2617E+00
			-90.00		1.2645E+00
			-89.50		1.2671E+00
			-89.00		1.2696E+00
			-88.50		1.2722E+00
			-88.00		1.2747E+00
			-87.50		1.2774E+00
			-87.00		1.2801E+00
			-86.50		1.2829E+00
			-86.00		1.2858E+00
			-85.50		1.2885E+00
			-85.00		1.2912E+00
			-84.50		1.2937E+00
			-84.00		1.2961E+00
			-83.50		1.2985E+00
			-83.00		1.3009E+00
			-82.50		1.3032E+00
			-82.00		1.3055E+00
			-81.50		1.3077E+00
			-81.00		1.3100E+00
			-80.50		1.3124E+00
			-80.00		1.3149E+00
			-79.50		1.3177E+00
			-79.00		1.3205E+00
			-78.50		1.3234E+00
			-78.00		1.3263E+00
			-77.50		1.3289E+00
			-77.00		1.3315E+00
			-76.50		1.3342E+00
			-76.00		1.3368E+00
			-75.50		1.3396E+00
			-75.00		1.3424E+00
			-74.50		1.3451E+00
			-74.00		1.3479E+00
			-73.50		1.3506E+00
			-73.00		1.3533E+00
			-72.50		1.3559E+00
			-72.00		1.3586E+00
			-71.50		1.3612E+00
			-71.00		1.3639E+00
			-70.50		1.3665E+00
			-70.00		1.3691E+00
			-69.50		1.3715E+00
			-69.00		1.3740E+00
			-68.50		1.3764E+00
			-68.00		1.3788E+00
			-67.50		1.3814E+00
			-67.00		1.3839E+00
			-66.50		1.3866E+00
			-66.00		1.3893E+00
			-65.50		1.3922E+00
			-65.00		1.3951E+00
			-64.50		1.3980E+00
			-64.00		1.4009E+00
			-63.50		1.4036E+00
			-63.00		1.4063E+00
			-62.50		1.4086E+00
			-62.00		1.4110E+00
			-61.50		1.4133E+00
			-61.00		1.4157E+00
			-60.50		1.4181E+00
			-60.00		1.4206E+00
			-59.50		1.4233E+00
			-59.00		1.4260E+00
			-58.50		1.4289E+00
			-58.00		1.4318E+00
			-57.50		1.4346E+00
			-57.00		1.4374E+00
			-56.50		1.4400E+00
			-56.00		1.4426E+00
			-55.50		1.4452E+00
			-55.00		1.4477E+00
			-54.50		1.4503E+00
			-54.00		1.4528E+00
			-53.50		1.4552E+00
			-53.00		1.4576E+00
			-52.50		1.4599E+00
			-52.00		1.4621E+00
			-51.50		1.4645E+00
			-51.00		1.4669E+00
			-50.50		1.4697E+00
			-50.00		1.4724E+00
			-49.50		1.4755E+00
			-49.00		1.4785E+00
			-48.50		1.4815E+00
			-48.00		1.4846E+00
			-47.50		1.4873E+00
			-47.00		1.4900E+00
			-46.50		1.4922E+00
			-46.00		1.4945E+00
			-45.50		1.4968E+00
			-45.00		1.4991E+00
			-44.50		1.5016E+00
			-44.00		1.5041E+00
			-43.50		1.5064E+00
			-43.00		1.5088E+00
			-42.50		1.5110E+00
			-42.00		1.5132E+00
			-41.50		1.5156E+00
			-41.00		1.5180E+00
			-40.50		1.5205E+00
			-40.00		1.5230E+00
			-39.50		1.5255E+00
			-39.00		1.5280E+00
			-38.50		1.5304E+00
			-38.00		1.5329E+00
			-37.50		1.5352E+00
			-37.00		1.5376E+00
			-36.50		1.5399E+00
			-36.00		1.5422E+00
			-35.50		1.5443E+00
			-35.00		1.5465E+00
			-34.50		1.5486E+00
			-34.00		1.5507E+00
			-33.50		1.5531E+00
			-33.00		1.5554E+00
			-32.50		1.5577E+00
			-32.00		1.5601E+00
			-31.50		1.5623E+00
			-31.00		1.5645E+00
			-30.50		1.5666E+00
			-30.00		1.5688E+00
			-29.50		1.5708E+00
			-29.00		1.5728E+00
			-28.50		1.5748E+00
			-28.00		1.5768E+00
			-27.50		1.5789E+00
			-27.00		1.5809E+00
			-26.50		1.5829E+00
			-26.00		1.5849E+00
			-25.50		1.5868E+00
			-25.00		1.5887E+00
			-24.50		1.5907E+00
			-24.00		1.5926E+00
			-23.50		1.5944E+00
			-23.00		1.5963E+00
			-22.50		1.5980E+00
			-22.00		1.5998E+00
			-21.50		1.6015E+00
			-21.00		1.6033E+00
			-20.50		1.6049E+00
			-20.00		1.6065E+00
			-19.50		1.6079E+00
			-19.00		1.6093E+00
			-18.50		1.6108E+00
			-18.00		1.6123E+00
			-17.50		1.6141E+00
			-17.00		1.6158E+00
			-16.50		1.6174E+00
			-16.00		1.6190E+00
			-15.50		1.6201E+00
			-15.00		1.6212E+00
			-14.50		1.6221E+00
			-14.00		1.6229E+00
			-13.50		1.6239E+00
			-13.00		1.6249E+00
			-12.50		1.6260E+00
			-12.00		1.6272E+00
			-11.50		1.6282E+00
			-11.00		1.6292E+00
			-10.50		1.6300E+00
			-10.00		1.6307E+00
			-9.50		1.6314E+00
			-9.00		1.6320E+00
			-8.50		1.6328E+00
			-8.00		1.6335E+00
			-7.50		1.6343E+00
			-7.00		1.6351E+00
			-6.50		1.6358E+00
			-6.00		1.6365E+00
			-5.50		1.6370E+00
			-5.00		1.6374E+00
			-4.50		1.6378E+00
			-4.00		1.6382E+00
			-3.50		1.6388E+00
			-3.00		1.6393E+00
			-2.50		1.6399E+00
			-2.00		1.6405E+00
			-1.50		1.6407E+00
			-1.00		1.6409E+00
			-0.50		1.6409E+00
			0.00		1.6408E+00
			0.50		1.6409E+00
			1.00		1.6409E+00
			1.50		1.6407E+00
			2.00		1.6405E+00
			2.50		1.6399E+00
			3.00		1.6393E+00
			3.50		1.6388E+00
			4.00		1.6382E+00
			4.50		1.6378E+00
			5.00		1.6374E+00
			5.50		1.6370E+00
			6.00		1.6365E+00
			6.50		1.6358E+00
			7.00		1.6351E+00
			7.50		1.6343E+00
			8.00		1.6335E+00
			8.50		1.6328E+00
			9.00		1.6320E+00
			9.50		1.6314E+00
			10.00		1.6307E+00
			10.50		1.6300E+00
			11.00		1.6292E+00
			11.50		1.6282E+00
			12.00		1.6272E+00
			12.50		1.6260E+00
			13.00		1.6249E+00
			13.50		1.6239E+00
