BEGIN_SCAN_DATA
	FORMAT=CC-Export V1.9                  
	FILE_CREATION_DATE=29-Jul-2022 17:05:09
	LAST_MODIFIED=29-Jul-2022 17:05:09
	BEGIN_SCAN  1
		TASK_NAME=tba PDD Profiles
		PROGRAM=WaterTankScans
		COMMENT=PDD + 5x X
		MEAS_DATE=08-Feb-2021 10:17:42
		LINAC=TRUEBEAMSN4791
		MODALITY=X
		ISOCENTER=1000.00
		INPLANE_AXIS=Y
		CROSSPLANE_AXIS=X
		DEPTH_AXIS=Depth
		INPLANE_AXIS_DIR=TARGET_GUN
		CROSSPLANE_AXIS_DIR=LEFT_RIGHT
		DEPTH_AXIS_DIR=UP_DOWN
		ENERGY=6.00
		NOMINAL_DMAX=15.00
		SSD=900.00
		SCD=450.00
		WEDGE_ANGLE=0.00
		FIELD_INPLANE=300.00
		FIELD_CROSSPLANE=300.00
		FIELD_TYPE=RECTANGULAR
		GANTRY=0.00
		GANTRY_UPRIGHT_POSITION=0
		GANTRY_ROTATION=CW
		COLL_ANGLE=0.00
		COLL_OFFSET_INPLANE=0.00
		COLL_OFFSET_CROSSPLANE=0.00
		SCAN_DEVICE=BeamScan
		SCAN_DEVICE_SETUP=BARA_LEFT_RIGHT
		ELECTROMETER=BeamScan
		RANGE_FIELD=LOW
		RANGE_REFERENCE=MEDIUM
		DETECTOR=THIMBLE_CHAMBER
		DETECTOR_SUBCODE=SEMIFLEX
		DETECTOR_RADIUS=2.40
		DETECTOR_NAME=PTW 31021 Semiflex 3D (1)
		DETECTOR_SN=142316
		DETECTOR_CALIBRATION=588000000.00
		DETECTOR_IS_CALIBRATED=1
		DETECTOR_REFERENCE=THIMBLE_CHAMBER
		DETECTOR_REFERENCE_SUBCODE=SEMIFLEX
		DETECTOR_REFERENCE_RADIUS=2.75
		DETECTOR_REFERENCE_NAME=PTW 31010 Semiflex (1)
		DETECTOR_REFERENCE_SN=—
		DETECTOR_REFERENCE_IS_CALIBRATED=0
		DETECTOR_REFERENCE_CALIBRATION=303000000.00
		DETECTOR_HV=400.0
		DETECTOR_REFERENCE_HV=400.0
		DETECTOR_ORIENTATION=HORIZONTAL
		FILTER=FF
		SCAN_SPEED_PROFILE=12.50
		SCAN_PROF_SPEED_DEP=DEPTH
		SCAN_SPEED_PDD=12.50
		SCAN_PDD_SPEED_DEP=ENERGY
		DETECTOR_TYPE=T31021
		REF_FIELD_DEPTH=100.00
		REF_FIELD_DEFINED=ISOCENTER
		REF_FIELD_INPLANE=100.00
		REF_FIELD_CROSSPLANE=100.00
		REF_SCAN_POSITIONS=-85.00;-84.00;-83.00;-82.00;-81.00;-80.00;-79.00;-78.00;-77.00;-76.00;-75.00;-74.00;-73.00;-72.00;-71.00;-70.00;-69.00;-68.00;-67.00;-66.00;-65.00;-64.00;-63.00;-62.00;-61.00;-60.00;-59.00;-58.00;-57.00;-56.00;-55.00;-54.00;-53.00;-52.00;-51.00;-50.00;-49.00;-48.00;-47.00;-46.00;-45.00;-44.00;-43.00;-42.00;-41.00;-40.00;-39.00;-38.00;-37.00;-36.00;-35.00;-34.00;-33.00;-32.00;-31.00;-30.00;-29.00;-28.00;-27.00;-26.00;-25.00;-24.00;-23.00;-22.00;-21.00;-20.00;-19.00;-18.00;-17.00;-16.00;-15.00;-14.00;-13.00;-12.00;-11.00;-10.00;-9.00;-8.00;-7.00;-6.00;-5.00;-4.00;-3.00;-2.00;-1.00;0.00;1.00;2.00;3.00;4.00;5.00;6.00;7.00;8.00;9.00;10.00;11.00;12.00;13.00;14.00;15.00;16.00;17.00;18.00;19.00;20.00;21.00;22.00;23.00;24.00;25.00;26.00;27.00;28.00;29.00;30.00;31.00;32.00;33.00;34.00;35.00;36.00;37.00;38.00;39.00;40.00;41.00;42.00;43.00;44.00;45.00;46.00;47.00;48.00;49.00;50.00;51.00;52.00;53.00;54.00;55.00;56.00;57.00;58.00;59.00;60.00;61.00;62.00;63.00;64.00;65.00;66.00;67.00;68.00;69.00;70.00;71.00;72.00;73.00;74.00;75.00;76.00;77.00;78.00;79.00;80.00;81.00;82.00;83.00;84.00;85.00;
		REF_OVERSCAN_FACTOR=1.00
		SCAN_CURVETYPE=CROSSPLANE_PROFILE
		SCAN_DEPTH=15.00
		SCAN_OFFAXIS_INPLANE=0.00
		SCAN_OFFAXIS_CROSSPLANE=0.00
		SCAN_ANGLE=0.00
		SCAN_DIAGONAL=NOT_DIAGONAL
		SCAN_DIRECTION=POSITIVE
		MEAS_MEDIUM=WATER
		MEAS_PRESET=MEAS_CONTINUOUS_REFERENCE_SCAN
		MEAS_TIME=0.080
		MEAS_UNIT=A.U.
		INCLINATION_ANGLE=0.00
		PRESSURE=1013.25
		TEMPERATURE=20.00
		NORM_TEMPERATURE=20.00
		CORRECTION_FACTOR=1.0000
		EXPECTED_MAX_DOSE_RATE=3.00
		EPOM_DEPTH_SHIFT=0.2
		EPOM_MODE=SHIFT_PROTOCOL
		CORRECTIONS=SMOOTHED_CORR;CAX_CORR;SYMMETRY_CORR;INTERPOLATED_CORR;
		BEGIN_DATA
			-170.00		62.750E-03
			-168.00		67.352E-03
			-166.00		71.040E-03
			-164.00		74.827E-03
			-162.00		78.215E-03
			-160.00		82.912E-03
			-158.00		87.045E-03
			-156.00		91.807E-03
			-154.00		96.910E-03
			-152.00		102.35E-03
			-150.00		108.37E-03
			-148.00		115.94E-03
			-146.00		127.53E-03
			-144.00		145.86E-03
			-142.00		186.48E-03
			-140.00		327.70E-03
			-138.00		643.03E-03
			-136.00		1.0178E+00
			-134.00		1.2538E+00
			-132.00		1.3266E+00
			-130.00		1.3497E+00
			-128.00		1.3618E+00
			-126.00		1.3685E+00
			-124.00		1.3733E+00
			-122.00		1.3759E+00
			-120.00		1.3761E+00
			-118.00		1.3771E+00
			-116.00		1.3772E+00
			-114.00		1.3791E+00
			-112.00		1.3808E+00
			-110.00		1.3810E+00
			-108.00		1.3807E+00
			-106.00		1.3812E+00
			-104.00		1.3825E+00
			-102.00		1.3828E+00
			-100.00		1.3840E+00
			-98.00		1.3846E+00
			-96.00		1.3844E+00
			-94.00		1.3828E+00
			-92.00		1.3817E+00
			-90.00		1.3819E+00
			-88.00		1.3813E+00
			-86.00		1.3819E+00
			-84.00		1.3825E+00
			-82.00		1.3829E+00
			-80.00		1.3829E+00
			-78.00		1.3821E+00
			-76.00		1.3816E+00
			-74.00		1.3809E+00
			-72.00		1.3800E+00
			-70.00		1.3803E+00
			-68.00		1.3789E+00
			-66.00		1.3788E+00
			-64.00		1.3781E+00
			-62.00		1.3774E+00
			-60.00		1.3759E+00
			-58.00		1.3753E+00
			-56.00		1.3749E+00
			-54.00		1.3740E+00
			-52.00		1.3722E+00
			-50.00		1.3710E+00
			-48.00		1.3702E+00
			-46.00		1.3692E+00
			-44.00		1.3677E+00
			-42.00		1.3663E+00
			-40.00		1.3648E+00
			-38.00		1.3623E+00
			-36.00		1.3598E+00
			-34.00		1.3561E+00
			-32.00		1.3539E+00
			-30.00		1.3539E+00
			-28.00		1.3526E+00
			-26.00		1.3524E+00
			-24.00		1.3516E+00
			-22.00		1.3510E+00
			-20.00		1.3496E+00
			-18.00		1.3473E+00
			-16.00		1.3481E+00
			-14.00		1.3467E+00
			-12.00		1.3449E+00
			-10.00		1.3438E+00
			-8.00		1.3412E+00
			-6.00		1.3381E+00
			-4.00		1.3387E+00
			-2.00		1.3391E+00
			0.00		1.3380E+00
			2.00		1.3391E+00
			4.00		1.3387E+00
			6.00		1.3381E+00
			8.00		1.3412E+00
			10.00		1.3438E+00
			12.00		1.3449E+00
			14.00		1.3467E+00
			16.00		1.3481E+00
			18.00		1.3473E+00
			20.00		1.3496E+00
			22.00		1.3510E+00
			24.00		1.3516E+00
			26.00		1.3524E+00
			28.00		1.3526E+00
			30.00		1.3539E+00
			32.00		1.3539E+00
			34.00		1.3561E+00
			36.00		1.3598E+00
			38.00		1.3623E+00
			40.00		1.3648E+00
			42.00		1.3663E+00
			44.00		1.3677E+00
			46.00		1.3692E+00
			48.00		1.3702E+00
			50.00		1.3710E+00
			52.00		1.3722E+00
			54.00		1.3740E+00
			56.00		1.3749E+00
			58.00		1.3753E+00
			60.00		1.3759E+00
			62.00		1.3774E+00
			64.00		1.3781E+00
			66.00		1.3788E+00
			68.00		1.3789E+00
			70.00		1.3803E+00
			72.00		1.3800E+00
			74.00		1.3809E+00
			76.00		1.3816E+00
			78.00		1.3821E+00
			80.00		1.3829E+00
			82.00		1.3829E+00
			84.00		1.3825E+00
			86.00		1.3819E+00
			88.00		1.3813E+00
			90.00		1.3819E+00
			92.00		1.3817E+00
			94.00		1.3828E+00
			96.00		1.3844E+00
			98.00		1.3846E+00
			100.00		1.3840E+00
			102.00		1.3828E+00
			104.00		1.3825E+00
			106.00		1.3812E+00
			108.00		1.3807E+00
			110.00		1.3810E+00
			112.00		1.3808E+00
			114.00		1.3791E+00
			116.00		1.3772E+00
			118.00		1.3771E+00
			120.00		1.3761E+00
			122.00		1.3759E+00
			124.00		1.3733E+00
			126.00		1.3685E+00
			128.00		1.3618E+00
			130.00		1.3497E+00
			132.00		1.3266E+00
			134.00		1.2538E+00
			136.00		1.0178E+00
			138.00		643.03E-03
			140.00		327.70E-03
			142.00		186.48E-03
			144.00		145.86E-03
			146.00		127.53E-03
			148.00		115.94E-03
			150.00		108.37E-03
			152.00		102.35E-03
			154.00		96.910E-03
			156.00		91.807E-03
			158.00		87.045E-03
			160.00		82.912E-03
			162.00		78.215E-03
			164.00		74.827E-03
			166.00		71.040E-03
			168.00		67.352E-03
			170.00		62.750E-03
		END_DATA
	END_SCAN  1
	BEGIN_SCAN  2
		TASK_NAME=tba PDD Profiles
		PROGRAM=WaterTankScans
		COMMENT=PDD + 5x X
		MEAS_DATE=08-Feb-2021 10:18:18
		LINAC=TRUEBEAMSN4791
		MODALITY=X
		ISOCENTER=1000.00
		INPLANE_AXIS=Y
		CROSSPLANE_AXIS=X
		DEPTH_AXIS=Depth
		INPLANE_AXIS_DIR=TARGET_GUN
		CROSSPLANE_AXIS_DIR=LEFT_RIGHT
		DEPTH_AXIS_DIR=UP_DOWN
		ENERGY=6.00
		NOMINAL_DMAX=15.00
		SSD=900.00
		SCD=450.00
		WEDGE_ANGLE=0.00
		FIELD_INPLANE=300.00
		FIELD_CROSSPLANE=300.00
		FIELD_TYPE=RECTANGULAR
		GANTRY=0.00
		GANTRY_UPRIGHT_POSITION=0
		GANTRY_ROTATION=CW
		COLL_ANGLE=0.00
		COLL_OFFSET_INPLANE=0.00
		COLL_OFFSET_CROSSPLANE=0.00
		SCAN_DEVICE=BeamScan
		SCAN_DEVICE_SETUP=BARA_LEFT_RIGHT
		ELECTROMETER=BeamScan
		RANGE_FIELD=LOW
		RANGE_REFERENCE=MEDIUM
		DETECTOR=THIMBLE_CHAMBER
		DETECTOR_SUBCODE=SEMIFLEX
		DETECTOR_RADIUS=2.40
		DETECTOR_NAME=PTW 31021 Semiflex 3D (1)
		DETECTOR_SN=142316
		DETECTOR_CALIBRATION=588000000.00
		DETECTOR_IS_CALIBRATED=1
		DETECTOR_REFERENCE=THIMBLE_CHAMBER
		DETECTOR_REFERENCE_SUBCODE=SEMIFLEX
		DETECTOR_REFERENCE_RADIUS=2.75
		DETECTOR_REFERENCE_NAME=PTW 31010 Semiflex (1)
		DETECTOR_REFERENCE_SN=—
		DETECTOR_REFERENCE_IS_CALIBRATED=0
		DETECTOR_REFERENCE_CALIBRATION=303000000.00
		DETECTOR_HV=400.0
		DETECTOR_REFERENCE_HV=400.0
		DETECTOR_ORIENTATION=HORIZONTAL
		FILTER=FF
		SCAN_SPEED_PROFILE=12.50
		SCAN_PROF_SPEED_DEP=DEPTH
		SCAN_SPEED_PDD=12.50
		SCAN_PDD_SPEED_DEP=ENERGY
		DETECTOR_TYPE=T31021
		REF_FIELD_DEPTH=100.00
		REF_FIELD_DEFINED=ISOCENTER
		REF_FIELD_INPLANE=100.00
		REF_FIELD_CROSSPLANE=100.00
		REF_SCAN_POSITIONS=-85.00;-84.00;-83.00;-82.00;-81.00;-80.00;-79.00;-78.00;-77.00;-76.00;-75.00;-74.00;-73.00;-72.00;-71.00;-70.00;-69.00;-68.00;-67.00;-66.00;-65.00;-64.00;-63.00;-62.00;-61.00;-60.00;-59.00;-58.00;-57.00;-56.00;-55.00;-54.00;-53.00;-52.00;-51.00;-50.00;-49.00;-48.00;-47.00;-46.00;-45.00;-44.00;-43.00;-42.00;-41.00;-40.00;-39.00;-38.00;-37.00;-36.00;-35.00;-34.00;-33.00;-32.00;-31.00;-30.00;-29.00;-28.00;-27.00;-26.00;-25.00;-24.00;-23.00;-22.00;-21.00;-20.00;-19.00;-18.00;-17.00;-16.00;-15.00;-14.00;-13.00;-12.00;-11.00;-10.00;-9.00;-8.00;-7.00;-6.00;-5.00;-4.00;-3.00;-2.00;-1.00;0.00;1.00;2.00;3.00;4.00;5.00;6.00;7.00;8.00;9.00;10.00;11.00;12.00;13.00;14.00;15.00;16.00;17.00;18.00;19.00;20.00;21.00;22.00;23.00;24.00;25.00;26.00;27.00;28.00;29.00;30.00;31.00;32.00;33.00;34.00;35.00;36.00;37.00;38.00;39.00;40.00;41.00;42.00;43.00;44.00;45.00;46.00;47.00;48.00;49.00;50.00;51.00;52.00;53.00;54.00;55.00;56.00;57.00;58.00;59.00;60.00;61.00;62.00;63.00;64.00;65.00;66.00;67.00;68.00;69.00;70.00;71.00;72.00;73.00;74.00;75.00;76.00;77.00;78.00;79.00;80.00;81.00;82.00;83.00;84.00;85.00;
		REF_OVERSCAN_FACTOR=1.00
		SCAN_CURVETYPE=CROSSPLANE_PROFILE
		SCAN_DEPTH=50.00
		SCAN_OFFAXIS_INPLANE=0.00
		SCAN_OFFAXIS_CROSSPLANE=0.00
		SCAN_ANGLE=0.00
		SCAN_DIAGONAL=NOT_DIAGONAL
		SCAN_DIRECTION=NEGATIVE
		MEAS_MEDIUM=WATER
		MEAS_PRESET=MEAS_CONTINUOUS_REFERENCE_SCAN
		MEAS_TIME=0.080
		MEAS_UNIT=A.U.
		INCLINATION_ANGLE=0.00
		PRESSURE=1013.25
		TEMPERATURE=20.00
		NORM_TEMPERATURE=20.00
		CORRECTION_FACTOR=1.0000
		EXPECTED_MAX_DOSE_RATE=3.00
		EPOM_DEPTH_SHIFT=0.2
		EPOM_MODE=SHIFT_PROTOCOL
		CORRECTIONS=SMOOTHED_CORR;CAX_CORR;SYMMETRY_CORR;INTERPOLATED_CORR;
		BEGIN_DATA
			-176.00		74.013E-03
			-174.00		76.462E-03
			-172.00		80.336E-03
			-170.00		84.234E-03
			-168.00		88.975E-03
			-166.00		93.724E-03
			-164.00		98.287E-03
			-162.00		103.61E-03
			-160.00		109.98E-03
			-158.00		116.28E-03
			-156.00		123.16E-03
			-154.00		131.42E-03
			-152.00		142.61E-03
			-150.00		158.25E-03
			-148.00		185.40E-03
			-146.00		258.19E-03
			-144.00		459.31E-03
			-142.00		747.06E-03
			-140.00		983.26E-03
			-138.00		1.0838E+00
			-136.00		1.1174E+00
			-134.00		1.1351E+00
			-132.00		1.1455E+00
			-130.00		1.1524E+00
			-128.00		1.1597E+00
			-126.00		1.1641E+00
			-124.00		1.1672E+00
			-122.00		1.1703E+00
			-120.00		1.1729E+00
			-118.00		1.1748E+00
			-116.00		1.1772E+00
			-114.00		1.1791E+00
			-112.00		1.1813E+00
			-110.00		1.1834E+00
			-108.00		1.1848E+00
			-106.00		1.1858E+00
			-104.00		1.1878E+00
			-102.00		1.1885E+00
			-100.00		1.1893E+00
			-98.00		1.1904E+00
			-96.00		1.1916E+00
			-94.00		1.1915E+00
			-92.00		1.1916E+00
			-90.00		1.1918E+00
			-88.00		1.1930E+00
			-86.00		1.1934E+00
			-84.00		1.1941E+00
			-82.00		1.1935E+00
			-80.00		1.1932E+00
			-78.00		1.1924E+00
			-76.00		1.1931E+00
			-74.00		1.1945E+00
			-72.00		1.1953E+00
			-70.00		1.1950E+00
			-68.00		1.1945E+00
			-66.00		1.1937E+00
			-64.00		1.1935E+00
			-62.00		1.1937E+00
			-60.00		1.1932E+00
			-58.00		1.1920E+00
			-56.00		1.1922E+00
			-54.00		1.1923E+00
			-52.00		1.1917E+00
			-50.00		1.1906E+00
			-48.00		1.1910E+00
			-46.00		1.1909E+00
			-44.00		1.1889E+00
			-42.00		1.1874E+00
			-40.00		1.1851E+00
			-38.00		1.1832E+00
			-36.00		1.1820E+00
			-34.00		1.1802E+00
			-32.00		1.1795E+00
			-30.00		1.1790E+00
			-28.00		1.1770E+00
			-26.00		1.1772E+00
			-24.00		1.1784E+00
			-22.00		1.1780E+00
			-20.00		1.1775E+00
			-18.00		1.1765E+00
			-16.00		1.1759E+00
			-14.00		1.1746E+00
			-12.00		1.1723E+00
			-10.00		1.1716E+00
			-8.00		1.1707E+00
			-6.00		1.1691E+00
			-4.00		1.1689E+00
			-2.00		1.1678E+00
			0.00		1.1671E+00
			2.00		1.1678E+00
			4.00		1.1689E+00
			6.00		1.1691E+00
			8.00		1.1707E+00
			10.00		1.1716E+00
			12.00		1.1723E+00
			14.00		1.1746E+00
			16.00		1.1759E+00
			18.00		1.1765E+00
			20.00		1.1775E+00
			22.00		1.1780E+00
			24.00		1.1784E+00
			26.00		1.1772E+00
			28.00		1.1770E+00
			30.00		1.1790E+00
			32.00		1.1795E+00
			34.00		1.1802E+00
			36.00		1.1820E+00
			38.00		1.1832E+00
			40.00		1.1851E+00
			42.00		1.1874E+00
			44.00		1.1889E+00
			46.00		1.1909E+00
			48.00		1.1910E+00
			50.00		1.1906E+00
			52.00		1.1917E+00
			54.00		1.1923E+00
			56.00		1.1922E+00
			58.00		1.1920E+00
			60.00		1.1932E+00
			62.00		1.1937E+00
			64.00		1.1935E+00
			66.00		1.1937E+00
			68.00		1.1945E+00
			70.00		1.1950E+00
			72.00		1.1953E+00
			74.00		1.1945E+00
			76.00		1.1931E+00
			78.00		1.1924E+00
			80.00		1.1932E+00
			82.00		1.1935E+00
			84.00		1.1941E+00
			86.00		1.1934E+00
			88.00		1.1930E+00
			90.00		1.1918E+00
			92.00		1.1916E+00
			94.00		1.1915E+00
			96.00		1.1916E+00
			98.00		1.1904E+00
			100.00		1.1893E+00
			102.00		1.1885E+00
			104.00		1.1878E+00
			106.00		1.1858E+00
			108.00		1.1848E+00
			110.00		1.1834E+00
			112.00		1.1813E+00
			114.00		1.1791E+00
			116.00		1.1772E+00
			118.00		1.1748E+00
			120.00		1.1729E+00
			122.00		1.1703E+00
			124.00		1.1672E+00
			126.00		1.1641E+00
			128.00		1.1597E+00
			130.00		1.1524E+00
			132.00		1.1455E+00
			134.00		1.1351E+00
			136.00		1.1174E+00
			138.00		1.0838E+00
			140.00		983.26E-03
			142.00		747.06E-03
			144.00		459.31E-03
			146.00		258.19E-03
			148.00		185.40E-03
			150.00		158.25E-03
			152.00		142.61E-03
			154.00		131.42E-03
			156.00		123.16E-03
			158.00		116.28E-03
			160.00		109.98E-03
			162.00		103.61E-03
			164.00		98.287E-03
			166.00		93.724E-03
			168.00		88.975E-03
			170.00		84.234E-03
			172.00		80.336E-03
			174.00		76.462E-03
			176.00		74.013E-03
		END_DATA
	END_SCAN  2
	BEGIN_SCAN  3
		TASK_NAME=tba PDD Profiles
		PROGRAM=WaterTankScans
		COMMENT=PDD + 5x X
		MEAS_DATE=08-Feb-2021 10:18:50
		LINAC=TRUEBEAMSN4791
		MODALITY=X
		ISOCENTER=1000.00
		INPLANE_AXIS=Y
		CROSSPLANE_AXIS=X
		DEPTH_AXIS=Depth
		INPLANE_AXIS_DIR=TARGET_GUN
		CROSSPLANE_AXIS_DIR=LEFT_RIGHT
		DEPTH_AXIS_DIR=UP_DOWN
		ENERGY=6.00
		NOMINAL_DMAX=15.00
		SSD=900.00
		SCD=450.00
		WEDGE_ANGLE=0.00
		FIELD_INPLANE=300.00
		FIELD_CROSSPLANE=300.00
		FIELD_TYPE=RECTANGULAR
		GANTRY=0.00
		GANTRY_UPRIGHT_POSITION=0
		GANTRY_ROTATION=CW
		COLL_ANGLE=0.00
		COLL_OFFSET_INPLANE=0.00
		COLL_OFFSET_CROSSPLANE=0.00
		SCAN_DEVICE=BeamScan
		SCAN_DEVICE_SETUP=BARA_LEFT_RIGHT
		ELECTROMETER=BeamScan
		RANGE_FIELD=LOW
		RANGE_REFERENCE=MEDIUM
		DETECTOR=THIMBLE_CHAMBER
		DETECTOR_SUBCODE=SEMIFLEX
		DETECTOR_RADIUS=2.40
		DETECTOR_NAME=PTW 31021 Semiflex 3D (1)
		DETECTOR_SN=142316
		DETECTOR_CALIBRATION=588000000.00
		DETECTOR_IS_CALIBRATED=1
		DETECTOR_REFERENCE=THIMBLE_CHAMBER
		DETECTOR_REFERENCE_SUBCODE=SEMIFLEX
		DETECTOR_REFERENCE_RADIUS=2.75
		DETECTOR_REFERENCE_NAME=PTW 31010 Semiflex (1)
		DETECTOR_REFERENCE_SN=—
		DETECTOR_REFERENCE_IS_CALIBRATED=0
		DETECTOR_REFERENCE_CALIBRATION=303000000.00
		DETECTOR_HV=400.0
		DETECTOR_REFERENCE_HV=400.0
		DETECTOR_ORIENTATION=HORIZONTAL
		FILTER=FF
		SCAN_SPEED_PROFILE=12.50
		SCAN_PROF_SPEED_DEP=DEPTH
		SCAN_SPEED_PDD=12.50
		SCAN_PDD_SPEED_DEP=ENERGY
		DETECTOR_TYPE=T31021
		REF_FIELD_DEPTH=100.00
		REF_FIELD_DEFINED=ISOCENTER
		REF_FIELD_INPLANE=100.00
		REF_FIELD_CROSSPLANE=100.00
		REF_SCAN_POSITIONS=-85.00;-84.00;-83.00;-82.00;-81.00;-80.00;-79.00;-78.00;-77.00;-76.00;-75.00;-74.00;-73.00;-72.00;-71.00;-70.00;-69.00;-68.00;-67.00;-66.00;-65.00;-64.00;-63.00;-62.00;-61.00;-60.00;-59.00;-58.00;-57.00;-56.00;-55.00;-54.00;-53.00;-52.00;-51.00;-50.00;-49.00;-48.00;-47.00;-46.00;-45.00;-44.00;-43.00;-42.00;-41.00;-40.00;-39.00;-38.00;-37.00;-36.00;-35.00;-34.00;-33.00;-32.00;-31.00;-30.00;-29.00;-28.00;-27.00;-26.00;-25.00;-24.00;-23.00;-22.00;-21.00;-20.00;-19.00;-18.00;-17.00;-16.00;-15.00;-14.00;-13.00;-12.00;-11.00;-10.00;-9.00;-8.00;-7.00;-6.00;-5.00;-4.00;-3.00;-2.00;-1.00;0.00;1.00;2.00;3.00;4.00;5.00;6.00;7.00;8.00;9.00;10.00;11.00;12.00;13.00;14.00;15.00;16.00;17.00;18.00;19.00;20.00;21.00;22.00;23.00;24.00;25.00;26.00;27.00;28.00;29.00;30.00;31.00;32.00;33.00;34.00;35.00;36.00;37.00;38.00;39.00;40.00;41.00;42.00;43.00;44.00;45.00;46.00;47.00;48.00;49.00;50.00;51.00;52.00;53.00;54.00;55.00;56.00;57.00;58.00;59.00;60.00;61.00;62.00;63.00;64.00;65.00;66.00;67.00;68.00;69.00;70.00;71.00;72.00;73.00;74.00;75.00;76.00;77.00;78.00;79.00;80.00;81.00;82.00;83.00;84.00;85.00;
		REF_OVERSCAN_FACTOR=1.00
		SCAN_CURVETYPE=CROSSPLANE_PROFILE
		SCAN_DEPTH=100.00
		SCAN_OFFAXIS_INPLANE=0.00
		SCAN_OFFAXIS_CROSSPLANE=0.00
		SCAN_ANGLE=0.00
		SCAN_DIAGONAL=NOT_DIAGONAL
		SCAN_DIRECTION=POSITIVE
		MEAS_MEDIUM=WATER
		MEAS_PRESET=MEAS_CONTINUOUS_REFERENCE_SCAN
		MEAS_TIME=0.080
		MEAS_UNIT=A.U.
		INCLINATION_ANGLE=0.00
		PRESSURE=1013.25
		TEMPERATURE=20.00
		NORM_TEMPERATURE=20.00
		CORRECTION_FACTOR=1.0000
		EXPECTED_MAX_DOSE_RATE=3.00
		EPOM_DEPTH_SHIFT=0.2
		EPOM_MODE=SHIFT_PROTOCOL
		CORRECTIONS=SMOOTHED_CORR;CAX_CORR;SYMMETRY_CORR;INTERPOLATED_CORR;
		BEGIN_DATA
			-184.00		81.168E-03
			-182.00		84.627E-03
			-180.00		88.330E-03
			-178.00		92.387E-03
			-176.00		96.936E-03
			-174.00		101.82E-03
			-172.00		106.33E-03
			-170.00		111.62E-03
			-168.00		117.22E-03
			-166.00		123.95E-03
			-164.00		130.10E-03
			-162.00		136.95E-03
			-160.00		145.96E-03
			-158.00		157.61E-03
			-156.00		176.80E-03
			-154.00		219.40E-03
			-152.00		333.79E-03
			-150.00		523.05E-03
			-148.00		699.98E-03
			-146.00		797.58E-03
			-144.00		831.16E-03
			-142.00		848.79E-03
			-140.00		860.19E-03
			-138.00		868.70E-03
			-136.00		875.29E-03
			-134.00		880.78E-03
			-132.00		884.65E-03
			-130.00		888.73E-03
			-128.00		893.47E-03
			-126.00		897.48E-03
			-124.00		900.89E-03
			-122.00		904.22E-03
			-120.00		906.44E-03
			-118.00		910.12E-03
			-116.00		913.48E-03
			-114.00		915.85E-03
			-112.00		917.17E-03
			-110.00		919.44E-03
			-108.00		921.84E-03
			-106.00		924.02E-03
			-104.00		925.15E-03
			-102.00		926.86E-03
			-100.00		928.79E-03
			-98.00		929.43E-03
			-96.00		930.65E-03
			-94.00		931.78E-03
			-92.00		932.36E-03
			-90.00		933.52E-03
			-88.00		935.33E-03
			-86.00		936.53E-03
			-84.00		936.92E-03
			-82.00		937.99E-03
			-80.00		939.71E-03
			-78.00		940.20E-03
			-76.00		940.65E-03
			-74.00		941.13E-03
			-72.00		942.07E-03
			-70.00		941.55E-03
			-68.00		941.46E-03
			-66.00		941.72E-03
			-64.00		942.49E-03
			-62.00		943.80E-03
			-60.00		943.15E-03
			-58.00		943.69E-03
			-56.00		943.45E-03
			-54.00		943.00E-03
			-52.00		943.23E-03
			-50.00		942.96E-03
			-48.00		943.01E-03
			-46.00		943.33E-03
			-44.00		943.19E-03
			-42.00		941.96E-03
			-40.00		939.94E-03
			-38.00		939.60E-03
			-36.00		939.21E-03
			-34.00		938.62E-03
			-32.00		938.14E-03
			-30.00		937.98E-03
			-28.00		938.14E-03
			-26.00		937.85E-03
			-24.00		938.15E-03
			-22.00		938.71E-03
			-20.00		938.44E-03
			-18.00		937.40E-03
			-16.00		936.20E-03
			-14.00		936.12E-03
			-12.00		935.85E-03
			-10.00		934.44E-03
			-8.00		934.10E-03
			-6.00		933.04E-03
			-4.00		932.53E-03
			-2.00		932.13E-03
			0.00		932.63E-03
			2.00		932.13E-03
			4.00		932.53E-03
			6.00		933.04E-03
			8.00		934.10E-03
			10.00		934.44E-03
			12.00		935.85E-03
			14.00		936.12E-03
			16.00		936.20E-03
			18.00		937.40E-03
			20.00		938.44E-03
			22.00		938.71E-03
			24.00		938.15E-03
			26.00		937.85E-03
			28.00		938.14E-03
			30.00		937.98E-03
			32.00		938.14E-03
			34.00		938.62E-03
			36.00		939.21E-03
			38.00		939.60E-03
			40.00		939.94E-03
			42.00		941.96E-03
			44.00		943.19E-03
			46.00		943.33E-03
			48.00		943.01E-03
			50.00		942.96E-03
			52.00		943.23E-03
			54.00		943.00E-03
			56.00		943.45E-03
			58.00		943.69E-03
			60.00		943.15E-03
			62.00		943.80E-03
			64.00		942.49E-03
			66.00		941.72E-03
			68.00		941.46E-03
			70.00		941.55E-03
			72.00		942.07E-03
			74.00		941.13E-03
			76.00		940.65E-03
			78.00		940.20E-03
			80.00		939.71E-03
			82.00		937.99E-03
			84.00		936.92E-03
			86.00		936.53E-03
			88.00		935.33E-03
			90.00		933.52E-03
			92.00		932.36E-03
			94.00		931.78E-03
			96.00		930.65E-03
			98.00		929.43E-03
			100.00		928.79E-03
			102.00		926.86E-03
			104.00		925.15E-03
			106.00		924.02E-03
			108.00		921.84E-03
			110.00		919.44E-03
			112.00		917.17E-03
			114.00		915.85E-03
			116.00		913.48E-03
			118.00		910.12E-03
			120.00		906.44E-03
			122.00		904.22E-03
			124.00		900.89E-03
			126.00		897.48E-03
			128.00		893.47E-03
			130.00		888.73E-03
			132.00		884.65E-03
			134.00		880.78E-03
			136.00		875.29E-03
			138.00		868.70E-03
			140.00		860.19E-03
			142.00		848.79E-03
			144.00		831.16E-03
			146.00		797.58E-03
			148.00		699.98E-03
			150.00		523.05E-03
			152.00		333.79E-03
			154.00		219.40E-03
			156.00		176.80E-03
			158.00		157.61E-03
			160.00		145.96E-03
			162.00		136.95E-03
			164.00		130.10E-03
			166.00		123.95E-03
			168.00		117.22E-03
			170.00		111.62E-03
			172.00		106.33E-03
			174.00		101.82E-03
			176.00		96.936E-03
			178.00		92.387E-03
			180.00		88.330E-03
			182.00		84.627E-03
			184.00		81.168E-03
		END_DATA
	END_SCAN  3
	BEGIN_SCAN  4
		TASK_NAME=tba PDD Profiles
		PROGRAM=WaterTankScans
		COMMENT=PDD + 5x X
		MEAS_DATE=08-Feb-2021 10:19:23
		LINAC=TRUEBEAMSN4791
		MODALITY=X
		ISOCENTER=1000.00
		INPLANE_AXIS=Y
		CROSSPLANE_AXIS=X
		DEPTH_AXIS=Depth
		INPLANE_AXIS_DIR=TARGET_GUN
		CROSSPLANE_AXIS_DIR=LEFT_RIGHT
		DEPTH_AXIS_DIR=UP_DOWN
		ENERGY=6.00
		NOMINAL_DMAX=15.00
		SSD=900.00
		SCD=450.00
		WEDGE_ANGLE=0.00
		FIELD_INPLANE=300.00
		FIELD_CROSSPLANE=300.00
		FIELD_TYPE=RECTANGULAR
		GANTRY=0.00
		GANTRY_UPRIGHT_POSITION=0
		GANTRY_ROTATION=CW
		COLL_ANGLE=0.00
		COLL_OFFSET_INPLANE=0.00
		COLL_OFFSET_CROSSPLANE=0.00
		SCAN_DEVICE=BeamScan
		SCAN_DEVICE_SETUP=BARA_LEFT_RIGHT
		ELECTROMETER=BeamScan
		RANGE_FIELD=LOW
		RANGE_REFERENCE=MEDIUM
		DETECTOR=THIMBLE_CHAMBER
		DETECTOR_SUBCODE=SEMIFLEX
		DETECTOR_RADIUS=2.40
		DETECTOR_NAME=PTW 31021 Semiflex 3D (1)
		DETECTOR_SN=142316
		DETECTOR_CALIBRATION=588000000.00
		DETECTOR_IS_CALIBRATED=1
		DETECTOR_REFERENCE=THIMBLE_CHAMBER
		DETECTOR_REFERENCE_SUBCODE=SEMIFLEX
		DETECTOR_REFERENCE_RADIUS=2.75
		DETECTOR_REFERENCE_NAME=PTW 31010 Semiflex (1)
		DETECTOR_REFERENCE_SN=—
		DETECTOR_REFERENCE_IS_CALIBRATED=0
		DETECTOR_REFERENCE_CALIBRATION=303000000.00
		DETECTOR_HV=400.0
		DETECTOR_REFERENCE_HV=400.0
		DETECTOR_ORIENTATION=HORIZONTAL
		FILTER=FF
		SCAN_SPEED_PROFILE=10.00
		SCAN_PROF_SPEED_DEP=DEPTH
		SCAN_SPEED_PDD=12.50
		SCAN_PDD_SPEED_DEP=ENERGY
		DETECTOR_TYPE=T31021
		REF_FIELD_DEPTH=100.00
		REF_FIELD_DEFINED=ISOCENTER
		REF_FIELD_INPLANE=100.00
		REF_FIELD_CROSSPLANE=100.00
		REF_SCAN_POSITIONS=-85.00;-84.00;-83.00;-82.00;-81.00;-80.00;-79.00;-78.00;-77.00;-76.00;-75.00;-74.00;-73.00;-72.00;-71.00;-70.00;-69.00;-68.00;-67.00;-66.00;-65.00;-64.00;-63.00;-62.00;-61.00;-60.00;-59.00;-58.00;-57.00;-56.00;-55.00;-54.00;-53.00;-52.00;-51.00;-50.00;-49.00;-48.00;-47.00;-46.00;-45.00;-44.00;-43.00;-42.00;-41.00;-40.00;-39.00;-38.00;-37.00;-36.00;-35.00;-34.00;-33.00;-32.00;-31.00;-30.00;-29.00;-28.00;-27.00;-26.00;-25.00;-24.00;-23.00;-22.00;-21.00;-20.00;-19.00;-18.00;-17.00;-16.00;-15.00;-14.00;-13.00;-12.00;-11.00;-10.00;-9.00;-8.00;-7.00;-6.00;-5.00;-4.00;-3.00;-2.00;-1.00;0.00;1.00;2.00;3.00;4.00;5.00;6.00;7.00;8.00;9.00;10.00;11.00;12.00;13.00;14.00;15.00;16.00;17.00;18.00;19.00;20.00;21.00;22.00;23.00;24.00;25.00;26.00;27.00;28.00;29.00;30.00;31.00;32.00;33.00;34.00;35.00;36.00;37.00;38.00;39.00;40.00;41.00;42.00;43.00;44.00;45.00;46.00;47.00;48.00;49.00;50.00;51.00;52.00;53.00;54.00;55.00;56.00;57.00;58.00;59.00;60.00;61.00;62.00;63.00;64.00;65.00;66.00;67.00;68.00;69.00;70.00;71.00;72.00;73.00;74.00;75.00;76.00;77.00;78.00;79.00;80.00;81.00;82.00;83.00;84.00;85.00;
		REF_OVERSCAN_FACTOR=1.00
		SCAN_CURVETYPE=CROSSPLANE_PROFILE
		SCAN_DEPTH=200.00
		SCAN_OFFAXIS_INPLANE=0.00
		SCAN_OFFAXIS_CROSSPLANE=0.00
		SCAN_ANGLE=0.00
		SCAN_DIAGONAL=NOT_DIAGONAL
		SCAN_DIRECTION=NEGATIVE
		MEAS_MEDIUM=WATER
		MEAS_PRESET=MEAS_CONTINUOUS_REFERENCE_SCAN
		MEAS_TIME=0.100
		MEAS_UNIT=A.U.
		INCLINATION_ANGLE=0.00
		PRESSURE=1013.25
		TEMPERATURE=20.00
		NORM_TEMPERATURE=20.00
		CORRECTION_FACTOR=1.0000
		EXPECTED_MAX_DOSE_RATE=3.00
		EPOM_DEPTH_SHIFT=0.2
		EPOM_MODE=SHIFT_PROTOCOL
		CORRECTIONS=SMOOTHED_CORR;CAX_CORR;SYMMETRY_CORR;INTERPOLATED_CORR;
		BEGIN_DATA
			-204.00		68.025E-03
			-202.00		69.684E-03
			-200.00		72.220E-03
			-198.00		74.739E-03
			-196.00		77.269E-03
			-194.00		80.114E-03
			-192.00		83.179E-03
			-190.00		86.358E-03
			-188.00		89.442E-03
			-186.00		92.881E-03
			-184.00		96.656E-03
			-182.00		100.46E-03
			-180.00		104.45E-03
			-178.00		108.90E-03
			-176.00		113.98E-03
			-174.00		119.89E-03
			-172.00		128.86E-03
			-170.00		144.45E-03
			-168.00		182.92E-03
			-166.00		259.25E-03
			-164.00		352.71E-03
			-162.00		423.00E-03
			-160.00		455.90E-03
			-158.00		469.99E-03
			-156.00		478.26E-03
			-154.00		485.24E-03
			-152.00		490.46E-03
			-150.00		494.94E-03
			-148.00		499.08E-03
			-146.00		502.00E-03
			-144.00		505.55E-03
			-142.00		508.93E-03
			-140.00		512.27E-03
			-138.00		514.84E-03
			-136.00		517.20E-03
			-134.00		520.32E-03
			-132.00		523.38E-03
			-130.00		526.07E-03
			-128.00		528.17E-03
			-126.00		530.51E-03
			-124.00		533.25E-03
			-122.00		535.56E-03
			-120.00		536.99E-03
			-118.00		539.26E-03
			-116.00		541.24E-03
			-114.00		542.93E-03
			-112.00		544.14E-03
			-110.00		545.39E-03
			-108.00		546.89E-03
			-106.00		548.78E-03
			-104.00		550.62E-03
			-102.00		551.98E-03
			-100.00		553.07E-03
			-98.00		554.19E-03
			-96.00		555.86E-03
			-94.00		557.61E-03
			-92.00		558.79E-03
			-90.00		560.16E-03
			-88.00		560.50E-03
			-86.00		561.34E-03
			-84.00		562.65E-03
			-82.00		563.64E-03
			-80.00		564.66E-03
			-78.00		565.20E-03
			-76.00		565.64E-03
			-74.00		566.43E-03
			-72.00		567.81E-03
			-70.00		568.54E-03
			-68.00		568.76E-03
			-66.00		569.53E-03
			-64.00		570.12E-03
			-62.00		570.89E-03
			-60.00		571.60E-03
			-58.00		571.49E-03
			-56.00		572.21E-03
			-54.00		573.03E-03
			-52.00		573.08E-03
			-50.00		573.02E-03
			-48.00		572.93E-03
			-46.00		572.76E-03
			-44.00		573.23E-03
			-42.00		573.18E-03
			-40.00		573.04E-03
			-38.00		573.18E-03
			-36.00		572.46E-03
			-34.00		572.98E-03
			-32.00		573.81E-03
			-30.00		574.17E-03
			-28.00		573.86E-03
			-26.00		574.12E-03
			-24.00		574.60E-03
			-22.00		574.47E-03
			-20.00		574.10E-03
			-18.00		573.76E-03
			-16.00		573.96E-03
			-14.00		573.85E-03
			-12.00		573.76E-03
			-10.00		573.73E-03
			-8.00		572.92E-03
			-6.00		572.78E-03
			-4.00		572.43E-03
			-2.00		572.25E-03
			0.00		572.07E-03
			2.00		572.25E-03
			4.00		572.43E-03
			6.00		572.78E-03
			8.00		572.92E-03
			10.00		573.73E-03
			12.00		573.76E-03
			14.00		573.85E-03
			16.00		573.96E-03
			18.00		573.76E-03
			20.00		574.10E-03
			22.00		574.47E-03
			24.00		574.60E-03
			26.00		574.12E-03
			28.00		573.86E-03
			30.00		574.17E-03
			32.00		573.81E-03
			34.00		572.98E-03
			36.00		572.46E-03
			38.00		573.18E-03
			40.00		573.04E-03
			42.00		573.18E-03
			44.00		573.23E-03
			46.00		572.76E-03
			48.00		572.93E-03
			50.00		573.02E-03
			52.00		573.08E-03
			54.00		573.03E-03
			56.00		572.21E-03
			58.00		571.49E-03
			60.00		571.60E-03
			62.00		570.89E-03
			64.00		570.12E-03
			66.00		569.53E-03
			68.00		568.76E-03
			70.00		568.54E-03
			72.00		567.81E-03
			74.00		566.43E-03
			76.00		565.64E-03
			78.00		565.20E-03
			80.00		564.66E-03
			82.00		563.64E-03
			84.00		562.65E-03
			86.00		561.34E-03
			88.00		560.50E-03
			90.00		560.16E-03
			92.00		558.79E-03
			94.00		557.61E-03
			96.00		555.86E-03
			98.00		554.19E-03
			100.00		553.07E-03
			102.00		551.98E-03
			104.00		550.62E-03
			106.00		548.78E-03
			108.00		546.89E-03
			110.00		545.39E-03
			112.00		544.14E-03
			114.00		542.93E-03
			116.00		541.24E-03
			118.00		539.26E-03
			120.00		536.99E-03
			122.00		535.56E-03
			124.00		533.25E-03
			126.00		530.51E-03
			128.00		528.17E-03
			130.00		526.07E-03
			132.00		523.38E-03
			134.00		520.32E-03
			136.00		517.20E-03
			138.00		514.84E-03
			140.00		512.27E-03
			142.00		508.93E-03
			144.00		505.55E-03
			146.00		502.00E-03
			148.00		499.08E-03
			150.00		494.94E-03
			152.00		490.46E-03
			154.00		485.24E-03
			156.00		478.26E-03
			158.00		469.99E-03
			160.00		455.90E-03
			162.00		423.00E-03
			164.00		352.71E-03
			166.00		259.25E-03
			168.00		182.92E-03
			170.00		144.45E-03
			172.00		128.86E-03
			174.00		119.89E-03
			176.00		113.98E-03
			178.00		108.90E-03
			180.00		104.45E-03
			182.00		100.46E-03
			184.00		96.656E-03
			186.00		92.881E-03
			188.00		89.442E-03
			190.00		86.358E-03
			192.00		83.179E-03
			194.00		80.114E-03
			196.00		77.269E-03
			198.00		74.739E-03
			200.00		72.220E-03
			202.00		69.684E-03
			204.00		68.025E-03
		END_DATA
	END_SCAN  4
	BEGIN_SCAN  5
		TASK_NAME=tba PDD Profiles
		PROGRAM=WaterTankScans
		COMMENT=PDD + 5x X
		MEAS_DATE=08-Feb-2021 10:20:10
		LINAC=TRUEBEAMSN4791
		MODALITY=X
		ISOCENTER=1000.00
		INPLANE_AXIS=Y
		CROSSPLANE_AXIS=X
		DEPTH_AXIS=Depth
		INPLANE_AXIS_DIR=TARGET_GUN
		CROSSPLANE_AXIS_DIR=LEFT_RIGHT
		DEPTH_AXIS_DIR=UP_DOWN
		ENERGY=6.00
		NOMINAL_DMAX=15.00
		SSD=900.00
		SCD=450.00
		WEDGE_ANGLE=0.00
		FIELD_INPLANE=300.00
		FIELD_CROSSPLANE=300.00
		FIELD_TYPE=RECTANGULAR
		GANTRY=0.00
		GANTRY_UPRIGHT_POSITION=0
		GANTRY_ROTATION=CW
		COLL_ANGLE=0.00
