BEGIN_SCAN_DATA
	FORMAT=CC-Export V1.9                  
	FILE_CREATION_DATE=29-Jul-2022 17:04:29
	LAST_MODIFIED=29-Jul-2022 17:04:29
	BEGIN_SCAN  1
		TASK_NAME=tba PDD Profiles
		PROGRAM=WaterTankScans
		COMMENT=PDD + 5x X
		MEAS_DATE=08-Feb-2021 09:58:36
		LINAC=TRUEBEAMSN4791
		MODALITY=X
		ISOCENTER=1000.00
		INPLANE_AXIS=Y
		CROSSPLANE_AXIS=X
		DEPTH_AXIS=Depth
		INPLANE_AXIS_DIR=TARGET_GUN
		CROSSPLANE_AXIS_DIR=LEFT_RIGHT
		DEPTH_AXIS_DIR=UP_DOWN
		ENERGY=6.00
		NOMINAL_DMAX=15.00
		SSD=900.00
		SCD=450.00
		WEDGE_ANGLE=0.00
		FIELD_INPLANE=120.00
		FIELD_CROSSPLANE=120.00
		FIELD_TYPE=RECTANGULAR
		GANTRY=0.00
		GANTRY_UPRIGHT_POSITION=0
		GANTRY_ROTATION=CW
		COLL_ANGLE=0.00
		COLL_OFFSET_INPLANE=0.00
		COLL_OFFSET_CROSSPLANE=0.00
		SCAN_DEVICE=BeamScan
		SCAN_DEVICE_SETUP=BARA_LEFT_RIGHT
		ELECTROMETER=BeamScan
		RANGE_FIELD=LOW
		RANGE_REFERENCE=MEDIUM
		DETECTOR=THIMBLE_CHAMBER
		DETECTOR_SUBCODE=SEMIFLEX
		DETECTOR_RADIUS=2.40
		DETECTOR_NAME=PTW 31021 Semiflex 3D (1)
		DETECTOR_SN=142316
		DETECTOR_CALIBRATION=588000000.00
		DETECTOR_IS_CALIBRATED=1
		DETECTOR_REFERENCE=THIMBLE_CHAMBER
		DETECTOR_REFERENCE_SUBCODE=SEMIFLEX
		DETECTOR_REFERENCE_RADIUS=2.75
		DETECTOR_REFERENCE_NAME=PTW 31010 Semiflex (1)
		DETECTOR_REFERENCE_SN=—
		DETECTOR_REFERENCE_IS_CALIBRATED=0
		DETECTOR_REFERENCE_CALIBRATION=303000000.00
		DETECTOR_HV=400.0
		DETECTOR_REFERENCE_HV=400.0
		DETECTOR_ORIENTATION=HORIZONTAL
		FILTER=FF
		SCAN_SPEED_PROFILE=12.50
		SCAN_PROF_SPEED_DEP=DEPTH
		SCAN_SPEED_PDD=12.50
		SCAN_PDD_SPEED_DEP=ENERGY
		DETECTOR_TYPE=T31021
		REF_FIELD_DEPTH=100.00
		REF_FIELD_DEFINED=ISOCENTER
		REF_FIELD_INPLANE=100.00
		REF_FIELD_CROSSPLANE=100.00
		REF_SCAN_POSITIONS=-85.00;-84.00;-83.00;-82.00;-81.00;-80.00;-79.00;-78.00;-77.00;-76.00;-75.00;-74.00;-73.00;-72.00;-71.00;-70.00;-69.00;-68.00;-67.00;-66.00;-65.00;-64.00;-63.00;-62.00;-61.00;-60.00;-59.00;-58.00;-57.00;-56.00;-55.00;-54.00;-53.00;-52.00;-51.00;-50.00;-49.00;-48.00;-47.00;-46.00;-45.00;-44.00;-43.00;-42.00;-41.00;-40.00;-39.00;-38.00;-37.00;-36.00;-35.00;-34.00;-33.00;-32.00;-31.00;-30.00;-29.00;-28.00;-27.00;-26.00;-25.00;-24.00;-23.00;-22.00;-21.00;-20.00;-19.00;-18.00;-17.00;-16.00;-15.00;-14.00;-13.00;-12.00;-11.00;-10.00;-9.00;-8.00;-7.00;-6.00;-5.00;-4.00;-3.00;-2.00;-1.00;0.00;1.00;2.00;3.00;4.00;5.00;6.00;7.00;8.00;9.00;10.00;11.00;12.00;13.00;14.00;15.00;16.00;17.00;18.00;19.00;20.00;21.00;22.00;23.00;24.00;25.00;26.00;27.00;28.00;29.00;30.00;31.00;32.00;33.00;34.00;35.00;36.00;37.00;38.00;39.00;40.00;41.00;42.00;43.00;44.00;45.00;46.00;47.00;48.00;49.00;50.00;51.00;52.00;53.00;54.00;55.00;56.00;57.00;58.00;59.00;60.00;61.00;62.00;63.00;64.00;65.00;66.00;67.00;68.00;69.00;70.00;71.00;72.00;73.00;74.00;75.00;76.00;77.00;78.00;79.00;80.00;81.00;82.00;83.00;84.00;85.00;
		REF_OVERSCAN_FACTOR=1.00
		SCAN_CURVETYPE=CROSSPLANE_PROFILE
		SCAN_DEPTH=15.00
		SCAN_OFFAXIS_INPLANE=0.00
		SCAN_OFFAXIS_CROSSPLANE=0.00
		SCAN_ANGLE=0.00
		SCAN_DIAGONAL=NOT_DIAGONAL
		SCAN_DIRECTION=POSITIVE
		MEAS_MEDIUM=WATER
		MEAS_PRESET=MEAS_CONTINUOUS_REFERENCE_SCAN
		MEAS_TIME=0.080
		MEAS_UNIT=A.U.
		INCLINATION_ANGLE=0.00
		PRESSURE=1013.25
		TEMPERATURE=20.00
		NORM_TEMPERATURE=20.00
		CORRECTION_FACTOR=1.0000
		EXPECTED_MAX_DOSE_RATE=3.00
		EPOM_DEPTH_SHIFT=0.2
		EPOM_MODE=SHIFT_PROTOCOL
		CORRECTIONS=SMOOTHED_CORR;CAX_CORR;SYMMETRY_CORR;INTERPOLATED_CORR;
		BEGIN_DATA
			-86.00		41.764E-03
			-84.00		44.193E-03
			-82.00		47.147E-03
			-80.00		50.552E-03
			-78.00		54.071E-03
			-76.00		58.210E-03
			-74.00		62.839E-03
			-72.00		67.442E-03
			-70.00		72.977E-03
			-68.00		79.730E-03
			-66.00		88.130E-03
			-64.00		100.30E-03
			-62.00		120.51E-03
			-60.00		163.16E-03
			-58.00		292.81E-03
			-56.00		635.15E-03
			-54.00		1.1026E+00
			-52.00		1.4592E+00
			-50.00		1.5998E+00
			-48.00		1.6442E+00
			-46.00		1.6592E+00
			-44.00		1.6683E+00
			-42.00		1.6735E+00
			-40.00		1.6753E+00
			-38.00		1.6774E+00
			-36.00		1.6783E+00
			-34.00		1.6780E+00
			-32.00		1.6790E+00
			-30.00		1.6797E+00
			-28.00		1.6801E+00
			-26.00		1.6797E+00
			-24.00		1.6806E+00
			-22.00		1.6807E+00
			-20.00		1.6806E+00
			-18.00		1.6798E+00
			-16.00		1.6793E+00
			-14.00		1.6791E+00
			-12.00		1.6783E+00
			-10.00		1.6753E+00
			-8.00		1.6748E+00
			-6.00		1.6718E+00
			-4.00		1.6704E+00
			-2.00		1.6692E+00
			0.00		1.6695E+00
			2.00		1.6692E+00
			4.00		1.6704E+00
			6.00		1.6718E+00
			8.00		1.6748E+00
			10.00		1.6753E+00
			12.00		1.6783E+00
			14.00		1.6791E+00
			16.00		1.6793E+00
			18.00		1.6798E+00
			20.00		1.6806E+00
			22.00		1.6807E+00
			24.00		1.6806E+00
			26.00		1.6797E+00
			28.00		1.6801E+00
			30.00		1.6797E+00
			32.00		1.6790E+00
			34.00		1.6780E+00
			36.00		1.6783E+00
			38.00		1.6774E+00
			40.00		1.6753E+00
			42.00		1.6735E+00
			44.00		1.6683E+00
			46.00		1.6592E+00
			48.00		1.6442E+00
			50.00		1.5998E+00
			52.00		1.4592E+00
			54.00		1.1026E+00
			56.00		635.15E-03
			58.00		292.81E-03
			60.00		163.16E-03
			62.00		120.51E-03
			64.00		100.30E-03
			66.00		88.130E-03
			68.00		79.730E-03
			70.00		72.977E-03
			72.00		67.442E-03
			74.00		62.839E-03
			76.00		58.210E-03
			78.00		54.071E-03
			80.00		50.552E-03
			82.00		47.147E-03
			84.00		44.193E-03
			86.00		41.764E-03
		END_DATA
	END_SCAN  1
	BEGIN_SCAN  2
		TASK_NAME=tba PDD Profiles
		PROGRAM=WaterTankScans
		COMMENT=PDD + 5x X
		MEAS_DATE=08-Feb-2021 09:58:56
		LINAC=TRUEBEAMSN4791
		MODALITY=X
		ISOCENTER=1000.00
		INPLANE_AXIS=Y
		CROSSPLANE_AXIS=X
		DEPTH_AXIS=Depth
		INPLANE_AXIS_DIR=TARGET_GUN
		CROSSPLANE_AXIS_DIR=LEFT_RIGHT
		DEPTH_AXIS_DIR=UP_DOWN
		ENERGY=6.00
		NOMINAL_DMAX=15.00
		SSD=900.00
		SCD=450.00
		WEDGE_ANGLE=0.00
		FIELD_INPLANE=120.00
		FIELD_CROSSPLANE=120.00
		FIELD_TYPE=RECTANGULAR
		GANTRY=0.00
		GANTRY_UPRIGHT_POSITION=0
		GANTRY_ROTATION=CW
		COLL_ANGLE=0.00
		COLL_OFFSET_INPLANE=0.00
		COLL_OFFSET_CROSSPLANE=0.00
		SCAN_DEVICE=BeamScan
		SCAN_DEVICE_SETUP=BARA_LEFT_RIGHT
		ELECTROMETER=BeamScan
		RANGE_FIELD=LOW
		RANGE_REFERENCE=MEDIUM
		DETECTOR=THIMBLE_CHAMBER
		DETECTOR_SUBCODE=SEMIFLEX
		DETECTOR_RADIUS=2.40
		DETECTOR_NAME=PTW 31021 Semiflex 3D (1)
		DETECTOR_SN=142316
		DETECTOR_CALIBRATION=588000000.00
		DETECTOR_IS_CALIBRATED=1
		DETECTOR_REFERENCE=THIMBLE_CHAMBER
		DETECTOR_REFERENCE_SUBCODE=SEMIFLEX
		DETECTOR_REFERENCE_RADIUS=2.75
		DETECTOR_REFERENCE_NAME=PTW 31010 Semiflex (1)
		DETECTOR_REFERENCE_SN=—
		DETECTOR_REFERENCE_IS_CALIBRATED=0
		DETECTOR_REFERENCE_CALIBRATION=303000000.00
		DETECTOR_HV=400.0
		DETECTOR_REFERENCE_HV=400.0
		DETECTOR_ORIENTATION=HORIZONTAL
		FILTER=FF
		SCAN_SPEED_PROFILE=12.50
		SCAN_PROF_SPEED_DEP=DEPTH
		SCAN_SPEED_PDD=12.50
		SCAN_PDD_SPEED_DEP=ENERGY
		DETECTOR_TYPE=T31021
		REF_FIELD_DEPTH=100.00
		REF_FIELD_DEFINED=ISOCENTER
		REF_FIELD_INPLANE=100.00
		REF_FIELD_CROSSPLANE=100.00
		REF_SCAN_POSITIONS=-85.00;-84.00;-83.00;-82.00;-81.00;-80.00;-79.00;-78.00;-77.00;-76.00;-75.00;-74.00;-73.00;-72.00;-71.00;-70.00;-69.00;-68.00;-67.00;-66.00;-65.00;-64.00;-63.00;-62.00;-61.00;-60.00;-59.00;-58.00;-57.00;-56.00;-55.00;-54.00;-53.00;-52.00;-51.00;-50.00;-49.00;-48.00;-47.00;-46.00;-45.00;-44.00;-43.00;-42.00;-41.00;-40.00;-39.00;-38.00;-37.00;-36.00;-35.00;-34.00;-33.00;-32.00;-31.00;-30.00;-29.00;-28.00;-27.00;-26.00;-25.00;-24.00;-23.00;-22.00;-21.00;-20.00;-19.00;-18.00;-17.00;-16.00;-15.00;-14.00;-13.00;-12.00;-11.00;-10.00;-9.00;-8.00;-7.00;-6.00;-5.00;-4.00;-3.00;-2.00;-1.00;0.00;1.00;2.00;3.00;4.00;5.00;6.00;7.00;8.00;9.00;10.00;11.00;12.00;13.00;14.00;15.00;16.00;17.00;18.00;19.00;20.00;21.00;22.00;23.00;24.00;25.00;26.00;27.00;28.00;29.00;30.00;31.00;32.00;33.00;34.00;35.00;36.00;37.00;38.00;39.00;40.00;41.00;42.00;43.00;44.00;45.00;46.00;47.00;48.00;49.00;50.00;51.00;52.00;53.00;54.00;55.00;56.00;57.00;58.00;59.00;60.00;61.00;62.00;63.00;64.00;65.00;66.00;67.00;68.00;69.00;70.00;71.00;72.00;73.00;74.00;75.00;76.00;77.00;78.00;79.00;80.00;81.00;82.00;83.00;84.00;85.00;
		REF_OVERSCAN_FACTOR=1.00
		SCAN_CURVETYPE=CROSSPLANE_PROFILE
		SCAN_DEPTH=50.00
		SCAN_OFFAXIS_INPLANE=0.00
		SCAN_OFFAXIS_CROSSPLANE=0.00
		SCAN_ANGLE=0.00
		SCAN_DIAGONAL=NOT_DIAGONAL
		SCAN_DIRECTION=NEGATIVE
		MEAS_MEDIUM=WATER
		MEAS_PRESET=MEAS_CONTINUOUS_REFERENCE_SCAN
		MEAS_TIME=0.080
		MEAS_UNIT=A.U.
		INCLINATION_ANGLE=0.00
		PRESSURE=1013.25
		TEMPERATURE=20.00
		NORM_TEMPERATURE=20.00
		CORRECTION_FACTOR=1.0000
		EXPECTED_MAX_DOSE_RATE=3.00
		EPOM_DEPTH_SHIFT=0.2
		EPOM_MODE=SHIFT_PROTOCOL
		CORRECTIONS=SMOOTHED_CORR;CAX_CORR;SYMMETRY_CORR;INTERPOLATED_CORR;
		BEGIN_DATA
			-90.00		46.823E-03
			-88.00		49.507E-03
			-86.00		53.076E-03
			-84.00		56.219E-03
			-82.00		60.506E-03
			-80.00		65.130E-03
			-78.00		69.812E-03
			-76.00		75.309E-03
			-74.00		81.257E-03
			-72.00		88.058E-03
			-70.00		96.194E-03
			-68.00		106.52E-03
			-66.00		120.57E-03
			-64.00		141.63E-03
			-62.00		183.03E-03
			-60.00		297.59E-03
			-58.00		574.16E-03
			-56.00		941.86E-03
			-54.00		1.2165E+00
			-52.00		1.3306E+00
			-50.00		1.3727E+00
			-48.00		1.3907E+00
			-46.00		1.4016E+00
			-44.00		1.4099E+00
			-42.00		1.4165E+00
			-40.00		1.4200E+00
			-38.00		1.4220E+00
			-36.00		1.4241E+00
			-34.00		1.4259E+00
			-32.00		1.4273E+00
			-30.00		1.4278E+00
			-28.00		1.4302E+00
			-26.00		1.4332E+00
			-24.00		1.4333E+00
			-22.00		1.4344E+00
			-20.00		1.4372E+00
			-18.00		1.4357E+00
			-16.00		1.4351E+00
			-14.00		1.4357E+00
			-12.00		1.4345E+00
			-10.00		1.4332E+00
			-8.00		1.4317E+00
			-6.00		1.4312E+00
			-4.00		1.4302E+00
			-2.00		1.4297E+00
			0.00		1.4300E+00
			2.00		1.4297E+00
			4.00		1.4302E+00
			6.00		1.4312E+00
			8.00		1.4317E+00
			10.00		1.4332E+00
			12.00		1.4345E+00
			14.00		1.4357E+00
			16.00		1.4351E+00
			18.00		1.4357E+00
			20.00		1.4372E+00
			22.00		1.4344E+00
			24.00		1.4333E+00
			26.00		1.4332E+00
			28.00		1.4302E+00
			30.00		1.4278E+00
			32.00		1.4273E+00
			34.00		1.4259E+00
			36.00		1.4241E+00
			38.00		1.4220E+00
			40.00		1.4200E+00
			42.00		1.4165E+00
			44.00		1.4099E+00
			46.00		1.4016E+00
			48.00		1.3907E+00
			50.00		1.3727E+00
			52.00		1.3306E+00
			54.00		1.2165E+00
			56.00		941.86E-03
			58.00		574.16E-03
			60.00		297.59E-03
			62.00		183.03E-03
			64.00		141.63E-03
			66.00		120.57E-03
			68.00		106.52E-03
			70.00		96.194E-03
			72.00		88.058E-03
			74.00		81.257E-03
			76.00		75.309E-03
			78.00		69.812E-03
			80.00		65.130E-03
			82.00		60.506E-03
			84.00		56.219E-03
			86.00		53.076E-03
			88.00		49.507E-03
			90.00		46.823E-03
		END_DATA
	END_SCAN  2
	BEGIN_SCAN  3
		TASK_NAME=tba PDD Profiles
		PROGRAM=WaterTankScans
		COMMENT=PDD + 5x X
		MEAS_DATE=08-Feb-2021 09:59:13
		LINAC=TRUEBEAMSN4791
		MODALITY=X
		ISOCENTER=1000.00
		INPLANE_AXIS=Y
		CROSSPLANE_AXIS=X
		DEPTH_AXIS=Depth
		INPLANE_AXIS_DIR=TARGET_GUN
		CROSSPLANE_AXIS_DIR=LEFT_RIGHT
		DEPTH_AXIS_DIR=UP_DOWN
		ENERGY=6.00
		NOMINAL_DMAX=15.00
		SSD=900.00
		SCD=450.00
		WEDGE_ANGLE=0.00
		FIELD_INPLANE=120.00
		FIELD_CROSSPLANE=120.00
		FIELD_TYPE=RECTANGULAR
		GANTRY=0.00
		GANTRY_UPRIGHT_POSITION=0
		GANTRY_ROTATION=CW
		COLL_ANGLE=0.00
		COLL_OFFSET_INPLANE=0.00
		COLL_OFFSET_CROSSPLANE=0.00
		SCAN_DEVICE=BeamScan
		SCAN_DEVICE_SETUP=BARA_LEFT_RIGHT
		ELECTROMETER=BeamScan
		RANGE_FIELD=LOW
		RANGE_REFERENCE=MEDIUM
		DETECTOR=THIMBLE_CHAMBER
		DETECTOR_SUBCODE=SEMIFLEX
		DETECTOR_RADIUS=2.40
		DETECTOR_NAME=PTW 31021 Semiflex 3D (1)
		DETECTOR_SN=142316
		DETECTOR_CALIBRATION=588000000.00
		DETECTOR_IS_CALIBRATED=1
		DETECTOR_REFERENCE=THIMBLE_CHAMBER
		DETECTOR_REFERENCE_SUBCODE=SEMIFLEX
		DETECTOR_REFERENCE_RADIUS=2.75
		DETECTOR_REFERENCE_NAME=PTW 31010 Semiflex (1)
		DETECTOR_REFERENCE_SN=—
		DETECTOR_REFERENCE_IS_CALIBRATED=0
		DETECTOR_REFERENCE_CALIBRATION=303000000.00
		DETECTOR_HV=400.0
		DETECTOR_REFERENCE_HV=400.0
		DETECTOR_ORIENTATION=HORIZONTAL
		FILTER=FF
		SCAN_SPEED_PROFILE=12.50
		SCAN_PROF_SPEED_DEP=DEPTH
		SCAN_SPEED_PDD=12.50
		SCAN_PDD_SPEED_DEP=ENERGY
		DETECTOR_TYPE=T31021
		REF_FIELD_DEPTH=100.00
		REF_FIELD_DEFINED=ISOCENTER
		REF_FIELD_INPLANE=100.00
		REF_FIELD_CROSSPLANE=100.00
		REF_SCAN_POSITIONS=-85.00;-84.00;-83.00;-82.00;-81.00;-80.00;-79.00;-78.00;-77.00;-76.00;-75.00;-74.00;-73.00;-72.00;-71.00;-70.00;-69.00;-68.00;-67.00;-66.00;-65.00;-64.00;-63.00;-62.00;-61.00;-60.00;-59.00;-58.00;-57.00;-56.00;-55.00;-54.00;-53.00;-52.00;-51.00;-50.00;-49.00;-48.00;-47.00;-46.00;-45.00;-44.00;-43.00;-42.00;-41.00;-40.00;-39.00;-38.00;-37.00;-36.00;-35.00;-34.00;-33.00;-32.00;-31.00;-30.00;-29.00;-28.00;-27.00;-26.00;-25.00;-24.00;-23.00;-22.00;-21.00;-20.00;-19.00;-18.00;-17.00;-16.00;-15.00;-14.00;-13.00;-12.00;-11.00;-10.00;-9.00;-8.00;-7.00;-6.00;-5.00;-4.00;-3.00;-2.00;-1.00;0.00;1.00;2.00;3.00;4.00;5.00;6.00;7.00;8.00;9.00;10.00;11.00;12.00;13.00;14.00;15.00;16.00;17.00;18.00;19.00;20.00;21.00;22.00;23.00;24.00;25.00;26.00;27.00;28.00;29.00;30.00;31.00;32.00;33.00;34.00;35.00;36.00;37.00;38.00;39.00;40.00;41.00;42.00;43.00;44.00;45.00;46.00;47.00;48.00;49.00;50.00;51.00;52.00;53.00;54.00;55.00;56.00;57.00;58.00;59.00;60.00;61.00;62.00;63.00;64.00;65.00;66.00;67.00;68.00;69.00;70.00;71.00;72.00;73.00;74.00;75.00;76.00;77.00;78.00;79.00;80.00;81.00;82.00;83.00;84.00;85.00;
		REF_OVERSCAN_FACTOR=1.00
		SCAN_CURVETYPE=CROSSPLANE_PROFILE
		SCAN_DEPTH=100.00
		SCAN_OFFAXIS_INPLANE=0.00
		SCAN_OFFAXIS_CROSSPLANE=0.00
		SCAN_ANGLE=0.00
		SCAN_DIAGONAL=NOT_DIAGONAL
		SCAN_DIRECTION=POSITIVE
		MEAS_MEDIUM=WATER
		MEAS_PRESET=MEAS_CONTINUOUS_REFERENCE_SCAN
		MEAS_TIME=0.080
		MEAS_UNIT=A.U.
		INCLINATION_ANGLE=0.00
		PRESSURE=1013.25
		TEMPERATURE=20.00
		NORM_TEMPERATURE=20.00
		CORRECTION_FACTOR=1.0000
		EXPECTED_MAX_DOSE_RATE=3.00
		EPOM_DEPTH_SHIFT=0.2
		EPOM_MODE=SHIFT_PROTOCOL
		CORRECTIONS=SMOOTHED_CORR;CAX_CORR;SYMMETRY_CORR;INTERPOLATED_CORR;
		BEGIN_DATA
			-94.00		53.767E-03
			-92.00		57.442E-03
			-90.00		60.593E-03
			-88.00		64.259E-03
			-86.00		68.263E-03
			-84.00		72.765E-03
			-82.00		77.155E-03
			-80.00		82.490E-03
			-78.00		88.418E-03
			-76.00		94.617E-03
			-74.00		102.08E-03
			-72.00		109.67E-03
			-70.00		120.14E-03
			-68.00		134.33E-03
			-66.00		156.74E-03
			-64.00		209.20E-03
			-62.00		346.05E-03
			-60.00		583.68E-03
			-58.00		820.54E-03
			-56.00		957.68E-03
			-54.00		1.0101E+00
			-52.00		1.0322E+00
			-50.00		1.0458E+00
			-48.00		1.0542E+00
			-46.00		1.0617E+00
			-44.00		1.0661E+00
			-42.00		1.0699E+00
			-40.00		1.0747E+00
			-38.00		1.0777E+00
			-36.00		1.0807E+00
			-34.00		1.0831E+00
			-32.00		1.0866E+00
			-30.00		1.0896E+00
			-28.00		1.0912E+00
			-26.00		1.0936E+00
			-24.00		1.0959E+00
			-22.00		1.0965E+00
			-20.00		1.0965E+00
			-18.00		1.0986E+00
			-16.00		1.0996E+00
			-14.00		1.1002E+00
			-12.00		1.0991E+00
			-10.00		1.0991E+00
			-8.00		1.0986E+00
			-6.00		1.0974E+00
			-4.00		1.0982E+00
			-2.00		1.0982E+00
			0.00		1.0979E+00
			2.00		1.0982E+00
			4.00		1.0982E+00
			6.00		1.0974E+00
			8.00		1.0986E+00
			10.00		1.0991E+00
			12.00		1.0991E+00
			14.00		1.1002E+00
			16.00		1.0996E+00
			18.00		1.0986E+00
			20.00		1.0965E+00
			22.00		1.0965E+00
			24.00		1.0959E+00
			26.00		1.0936E+00
			28.00		1.0912E+00
			30.00		1.0896E+00
			32.00		1.0866E+00
			34.00		1.0831E+00
			36.00		1.0807E+00
			38.00		1.0777E+00
			40.00		1.0747E+00
			42.00		1.0699E+00
			44.00		1.0661E+00
			46.00		1.0617E+00
			48.00		1.0542E+00
			50.00		1.0458E+00
			52.00		1.0322E+00
			54.00		1.0101E+00
			56.00		957.68E-03
			58.00		820.54E-03
			60.00		583.68E-03
			62.00		346.05E-03
			64.00		209.20E-03
			66.00		156.74E-03
			68.00		134.33E-03
			70.00		120.14E-03
			72.00		109.67E-03
			74.00		102.08E-03
			76.00		94.617E-03
			78.00		88.418E-03
			80.00		82.490E-03
			82.00		77.155E-03
			84.00		72.765E-03
			86.00		68.263E-03
			88.00		64.259E-03
			90.00		60.593E-03
			92.00		57.442E-03
			94.00		53.767E-03
		END_DATA
	END_SCAN  3
	BEGIN_SCAN  4
		TASK_NAME=tba PDD Profiles
		PROGRAM=WaterTankScans
		COMMENT=PDD + 5x X
		MEAS_DATE=08-Feb-2021 09:59:32
		LINAC=TRUEBEAMSN4791
		MODALITY=X
		ISOCENTER=1000.00
		INPLANE_AXIS=Y
		CROSSPLANE_AXIS=X
		DEPTH_AXIS=Depth
		INPLANE_AXIS_DIR=TARGET_GUN
		CROSSPLANE_AXIS_DIR=LEFT_RIGHT
		DEPTH_AXIS_DIR=UP_DOWN
		ENERGY=6.00
		NOMINAL_DMAX=15.00
		SSD=900.00
		SCD=450.00
		WEDGE_ANGLE=0.00
		FIELD_INPLANE=120.00
		FIELD_CROSSPLANE=120.00
		FIELD_TYPE=RECTANGULAR
		GANTRY=0.00
		GANTRY_UPRIGHT_POSITION=0
		GANTRY_ROTATION=CW
		COLL_ANGLE=0.00
		COLL_OFFSET_INPLANE=0.00
		COLL_OFFSET_CROSSPLANE=0.00
		SCAN_DEVICE=BeamScan
		SCAN_DEVICE_SETUP=BARA_LEFT_RIGHT
		ELECTROMETER=BeamScan
		RANGE_FIELD=LOW
		RANGE_REFERENCE=MEDIUM
		DETECTOR=THIMBLE_CHAMBER
		DETECTOR_SUBCODE=SEMIFLEX
		DETECTOR_RADIUS=2.40
		DETECTOR_NAME=PTW 31021 Semiflex 3D (1)
		DETECTOR_SN=142316
		DETECTOR_CALIBRATION=588000000.00
		DETECTOR_IS_CALIBRATED=1
		DETECTOR_REFERENCE=THIMBLE_CHAMBER
		DETECTOR_REFERENCE_SUBCODE=SEMIFLEX
		DETECTOR_REFERENCE_RADIUS=2.75
		DETECTOR_REFERENCE_NAME=PTW 31010 Semiflex (1)
		DETECTOR_REFERENCE_SN=—
		DETECTOR_REFERENCE_IS_CALIBRATED=0
		DETECTOR_REFERENCE_CALIBRATION=303000000.00
		DETECTOR_HV=400.0
		DETECTOR_REFERENCE_HV=400.0
		DETECTOR_ORIENTATION=HORIZONTAL
		FILTER=FF
		SCAN_SPEED_PROFILE=10.00
		SCAN_PROF_SPEED_DEP=DEPTH
		SCAN_SPEED_PDD=12.50
		SCAN_PDD_SPEED_DEP=ENERGY
		DETECTOR_TYPE=T31021
		REF_FIELD_DEPTH=100.00
		REF_FIELD_DEFINED=ISOCENTER
		REF_FIELD_INPLANE=100.00
		REF_FIELD_CROSSPLANE=100.00
		REF_SCAN_POSITIONS=-85.00;-84.00;-83.00;-82.00;-81.00;-80.00;-79.00;-78.00;-77.00;-76.00;-75.00;-74.00;-73.00;-72.00;-71.00;-70.00;-69.00;-68.00;-67.00;-66.00;-65.00;-64.00;-63.00;-62.00;-61.00;-60.00;-59.00;-58.00;-57.00;-56.00;-55.00;-54.00;-53.00;-52.00;-51.00;-50.00;-49.00;-48.00;-47.00;-46.00;-45.00;-44.00;-43.00;-42.00;-41.00;-40.00;-39.00;-38.00;-37.00;-36.00;-35.00;-34.00;-33.00;-32.00;-31.00;-30.00;-29.00;-28.00;-27.00;-26.00;-25.00;-24.00;-23.00;-22.00;-21.00;-20.00;-19.00;-18.00;-17.00;-16.00;-15.00;-14.00;-13.00;-12.00;-11.00;-10.00;-9.00;-8.00;-7.00;-6.00;-5.00;-4.00;-3.00;-2.00;-1.00;0.00;1.00;2.00;3.00;4.00;5.00;6.00;7.00;8.00;9.00;10.00;11.00;12.00;13.00;14.00;15.00;16.00;17.00;18.00;19.00;20.00;21.00;22.00;23.00;24.00;25.00;26.00;27.00;28.00;29.00;30.00;31.00;32.00;33.00;34.00;35.00;36.00;37.00;38.00;39.00;40.00;41.00;42.00;43.00;44.00;45.00;46.00;47.00;48.00;49.00;50.00;51.00;52.00;53.00;54.00;55.00;56.00;57.00;58.00;59.00;60.00;61.00;62.00;63.00;64.00;65.00;66.00;67.00;68.00;69.00;70.00;71.00;72.00;73.00;74.00;75.00;76.00;77.00;78.00;79.00;80.00;81.00;82.00;83.00;84.00;85.00;
		REF_OVERSCAN_FACTOR=1.00
		SCAN_CURVETYPE=CROSSPLANE_PROFILE
		SCAN_DEPTH=200.00
		SCAN_OFFAXIS_INPLANE=0.00
		SCAN_OFFAXIS_CROSSPLANE=0.00
		SCAN_ANGLE=0.00
		SCAN_DIAGONAL=NOT_DIAGONAL
		SCAN_DIRECTION=NEGATIVE
		MEAS_MEDIUM=WATER
		MEAS_PRESET=MEAS_CONTINUOUS_REFERENCE_SCAN
		MEAS_TIME=0.100
		MEAS_UNIT=A.U.
		INCLINATION_ANGLE=0.00
		PRESSURE=1013.25
		TEMPERATURE=20.00
		NORM_TEMPERATURE=20.00
		CORRECTION_FACTOR=1.0000
		EXPECTED_MAX_DOSE_RATE=3.00
		EPOM_DEPTH_SHIFT=0.2
		EPOM_MODE=SHIFT_PROTOCOL
		CORRECTIONS=SMOOTHED_CORR;CAX_CORR;SYMMETRY_CORR;INTERPOLATED_CORR;
		BEGIN_DATA
			-104.00		46.554E-03
			-102.00		48.733E-03
			-100.00		50.880E-03
			-98.00		53.358E-03
			-96.00		55.953E-03
			-94.00		58.626E-03
			-92.00		61.640E-03
			-90.00		64.710E-03
			-88.00		68.138E-03
			-86.00		71.518E-03
			-84.00		75.097E-03
			-82.00		79.438E-03
			-80.00		83.826E-03
			-78.00		89.212E-03
			-76.00		95.365E-03
			-74.00		103.50E-03
			-72.00		117.73E-03
			-70.00		147.35E-03
			-68.00		218.27E-03
			-66.00		334.27E-03
			-64.00		452.31E-03
			-62.00		524.86E-03
			-60.00		555.15E-03
			-58.00		568.67E-03
			-56.00		578.03E-03
			-54.00		584.40E-03
			-52.00		589.13E-03
			-50.00		593.23E-03
			-48.00		597.15E-03
			-46.00		599.83E-03
			-44.00		602.51E-03
			-42.00		604.93E-03
			-40.00		607.52E-03
			-38.00		610.95E-03
			-36.00		612.47E-03
			-34.00		613.60E-03
			-32.00		615.85E-03
			-30.00		618.18E-03
			-28.00		619.63E-03
			-26.00		621.50E-03
			-24.00		622.21E-03
			-22.00		622.93E-03
			-20.00		624.23E-03
			-18.00		624.50E-03
			-16.00		624.72E-03
			-14.00		625.36E-03
			-12.00		625.40E-03
			-10.00		624.97E-03
			-8.00		624.92E-03
			-6.00		625.41E-03
			-4.00		625.76E-03
			-2.00		625.60E-03
			0.00		626.25E-03
			2.00		625.60E-03
			4.00		625.76E-03
			6.00		625.41E-03
			8.00		624.92E-03
			10.00		624.97E-03
			12.00		625.40E-03
			14.00		625.36E-03
			16.00		624.72E-03
			18.00		624.50E-03
			20.00		624.23E-03
			22.00		622.93E-03
			24.00		622.21E-03
			26.00		621.50E-03
			28.00		619.63E-03
			30.00		618.18E-03
			32.00		615.85E-03
			34.00		613.60E-03
			36.00		612.47E-03
			38.00		610.95E-03
			40.00		607.52E-03
			42.00		604.93E-03
			44.00		602.51E-03
			46.00		599.83E-03
			48.00		597.15E-03
			50.00		593.23E-03
			52.00		589.13E-03
			54.00		584.40E-03
			56.00		578.03E-03
			58.00		568.67E-03
			60.00		555.15E-03
			62.00		524.86E-03
			64.00		452.31E-03
			66.00		334.27E-03
			68.00		218.27E-03
			70.00		147.35E-03
			72.00		117.73E-03
			74.00		103.50E-03
			76.00		95.365E-03
			78.00		89.212E-03
			80.00		83.826E-03
			82.00		79.438E-03
			84.00		75.097E-03
			86.00		71.518E-03
			88.00		68.138E-03
			90.00		64.710E-03
			92.00		61.640E-03
			94.00		58.626E-03
			96.00		55.953E-03
			98.00		53.358E-03
			100.00		50.880E-03
			102.00		48.733E-03
			104.00		46.554E-03
		END_DATA
	END_SCAN  4
	BEGIN_SCAN  5
		TASK_NAME=tba PDD Profiles
		PROGRAM=WaterTankScans
		COMMENT=PDD + 5x X
		MEAS_DATE=08-Feb-2021 09:59:59
		LINAC=TRUEBEAMSN4791
		MODALITY=X
		ISOCENTER=1000.00
		INPLANE_AXIS=Y
		CROSSPLANE_AXIS=X
		DEPTH_AXIS=Depth
		INPLANE_AXIS_DIR=TARGET_GUN
		CROSSPLANE_AXIS_DIR=LEFT_RIGHT
		DEPTH_AXIS_DIR=UP_DOWN
		ENERGY=6.00
		NOMINAL_DMAX=15.00
		SSD=900.00
		SCD=450.00
		WEDGE_ANGLE=0.00
		FIELD_INPLANE=120.00
		FIELD_CROSSPLANE=120.00
		FIELD_TYPE=RECTANGULAR
		GANTRY=0.00
		GANTRY_UPRIGHT_POSITION=0
		GANTRY_ROTATION=CW
		COLL_ANGLE=0.00
		COLL_OFFSET_INPLANE=0.00
		COLL_OFFSET_CROSSPLANE=0.00
		SCAN_DEVICE=BeamScan
		SCAN_DEVICE_SETUP=BARA_LEFT_RIGHT
		ELECTROMETER=BeamScan
		RANGE_FIELD=LOW
		RANGE_REFERENCE=MEDIUM
		DETECTOR=THIMBLE_CHAMBER
		DETECTOR_SUBCODE=SEMIFLEX
		DETECTOR_RADIUS=2.40
		DETECTOR_NAME=PTW 31021 Semiflex 3D (1)
		DETECTOR_SN=142316
		DETECTOR_CALIBRATION=588000000.00
		DETECTOR_IS_CALIBRATED=1
		DETECTOR_REFERENCE=THIMBLE_CHAMBER
		DETECTOR_REFERENCE_SUBCODE=SEMIFLEX
		DETECTOR_REFERENCE_RADIUS=2.75
		DETECTOR_REFERENCE_NAME=PTW 31010 Semiflex (1)
		DETECTOR_REFERENCE_SN=—
		DETECTOR_REFERENCE_IS_CALIBRATED=0
		DETECTOR_REFERENCE_CALIBRATION=303000000.00
		DETECTOR_HV=400.0
		DETECTOR_REFERENCE_HV=400.0
		DETECTOR_ORIENTATION=HORIZONTAL
		FILTER=FF
		SCAN_SPEED_PROFILE=10.00
		SCAN_PROF_SPEED_DEP=DEPTH
		SCAN_SPEED_PDD=12.50
		SCAN_PDD_SPEED_DEP=ENERGY
		DETECTOR_TYPE=T31021
		REF_FIELD_DEPTH=100.00
		REF_FIELD_DEFINED=ISOCENTER
		REF_FIELD_INPLANE=100.00
		REF_FIELD_CROSSPLANE=100.00
		REF_SCAN_POSITIONS=-85.00;-84.00;-83.00;-82.00;-81.00;-80.00;-79.00;-78.00;-77.00;-76.00;-75.00;-74.00;-73.00;-72.00;-71.00;-70.00;-69.00;-68.00;-67.00;-66.00;-65.00;-64.00;-63.00;-62.00;-61.00;-60.00;-59.00;-58.00;-57.00;-56.00;-55.00;-54.00;-53.00;-52.00;-51.00;-50.00;-49.00;-48.00;-47.00;-46.00;-45.00;-44.00;-43.00;-42.00;-41.00;-40.00;-39.00;-38.00;-37.00;-36.00;-35.00;-34.00;-33.00;-32.00;-31.00;-30.00;-29.00;-28.00;-27.00;-26.00;-25.00;-24.00;-23.00;-22.00;-21.00;-20.00;-19.00;-18.00;-17.00;-16.00;-15.00;-14.00;-13.00;-12.00;-11.00;-10.00;-9.00;-8.00;-7.00;-6.00;-5.00;-4.00;-3.00;-2.00;-1.00;0.00;1.00;2.00;3.00;4.00;5.00;6.00;7.00;8.00;9.00;10.00;11.00;12.00;13.00;14.00;15.00;16.00;17.00;18.00;19.00;20.00;21.00;22.00;23.00;24.00;25.00;26.00;27.00;28.00;29.00;30.00;31.00;32.00;33.00;34.00;35.00;36.00;37.00;38.00;39.00;40.00;41.00;42.00;43.00;44.00;45.00;46.00;47.00;48.00;49.00;50.00;51.00;52.00;53.00;54.00;55.00;56.00;57.00;58.00;59.00;60.00;61.00;62.00;63.00;64.00;65.00;66.00;67.00;68.00;69.00;70.00;71.00;72.00;73.00;74.00;75.00;76.00;77.00;78.00;79.00;80.00;81.00;82.00;83.00;84.00;85.00;
		REF_OVERSCAN_FACTOR=1.00
		SCAN_CURVETYPE=CROSSPLANE_PROFILE
		SCAN_DEPTH=300.00
		SCAN_OFFAXIS_INPLANE=0.00
		SCAN_OFFAXIS_CROSSPLANE=0.00
		SCAN_ANGLE=0.00
		SCAN_DIAGONAL=NOT_DIAGONAL
		SCAN_DIRECTION=POSITIVE
		MEAS_MEDIUM=WATER
		MEAS_PRESET=MEAS_CONTINUOUS_REFERENCE_SCAN
		MEAS_TIME=0.100
		MEAS_UNIT=A.U.
		INCLINATION_ANGLE=0.00
		PRESSURE=1013.25
		TEMPERATURE=20.00
		NORM_TEMPERATURE=20.00
		CORRECTION_FACTOR=1.0000
		EXPECTED_MAX_DOSE_RATE=3.00
		EPOM_DEPTH_SHIFT=0.2
		EPOM_MODE=SHIFT_PROTOCOL
		CORRECTIONS=SMOOTHED_CORR;CAX_CORR;SYMMETRY_CORR;INTERPOLATED_CORR;
		BEGIN_DATA
			-114.00		33.276E-03
			-112.00		34.185E-03
			-110.00		35.620E-03
			-108.00		36.763E-03
			-106.00		38.405E-03
			-104.00		39.825E-03
			-102.00		41.500E-03
			-100.00		43.114E-03
			-98.00		44.914E-03
			-96.00		46.769E-03
			-94.00		48.832E-03
			-92.00		50.673E-03
			-90.00		52.997E-03
			-88.00		55.735E-03
			-86.00		57.963E-03
			-84.00		60.764E-03
			-82.00		64.581E-03
			-80.00		69.531E-03
			-78.00		77.680E-03
			-76.00		94.509E-03
			-74.00		132.28E-03
			-72.00		193.27E-03
			-70.00		254.20E-03
			-68.00		292.79E-03
			-66.00		310.64E-03
			-64.00		318.94E-03
			-62.00		324.25E-03
			-60.00		328.03E-03
			-58.00		331.10E-03
			-56.00		333.75E-03
			-54.00		335.88E-03
			-52.00		337.77E-03
			-50.00		339.53E-03
			-48.00		341.41E-03
			-46.00		343.17E-03
			-44.00		344.39E-03
			-42.00		345.56E-03
			-40.00		346.76E-03
			-38.00		347.81E-03
			-36.00		349.13E-03
			-34.00		350.50E-03
			-32.00		351.41E-03
			-30.00		352.48E-03
			-28.00		353.85E-03
			-26.00		354.21E-03
			-24.00		354.60E-03
			-22.00		355.36E-03
			-20.00		355.71E-03
			-18.00		355.98E-03
			-16.00		356.82E-03
			-14.00		356.89E-03
			-12.00		357.05E-03
			-10.00		357.64E-03
			-8.00		357.45E-03
			-6.00		357.12E-03
			-4.00		357.12E-03
			-2.00		357.62E-03
			0.00		357.58E-03
			2.00		357.62E-03
			4.00		357.12E-03
			6.00		357.12E-03
			8.00		357.45E-03
			10.00		357.64E-03
			12.00		357.05E-03
			14.00		356.89E-03
			16.00		356.82E-03
			18.00		355.98E-03
			20.00		355.71E-03
			22.00		355.36E-03
			24.00		354.60E-03
			26.00		354.21E-03
			28.00		353.85E-03
			30.00		352.48E-03
			32.00		351.41E-03
			34.00		350.50E-03
			36.00		349.13E-03
			38.00		347.81E-03
			40.00		346.76E-03
			42.00		345.56E-03
			44.00		344.39E-03
			46.00		343.17E-03
			48.00		341.41E-03
			50.00		339.53E-03
			52.00		337.77E-03
			54.00		335.88E-03
			56.00		333.75E-03
			58.00		331.10E-03
			60.00		328.03E-03
			62.00		324.25E-03
			64.00		318.94E-03
			66.00		310.64E-03
			68.00		292.79E-03
			70.00		254.20E-03
			72.00		193.27E-03
			74.00		132.28E-03
			76.00		94.509E-03
			78.00		77.680E-03
			80.00		69.531E-03
			82.00		64.581E-03
			84.00		60.764E-03
			86.00		57.963E-03
			88.00		55.735E-03
			90.00		52.997E-03
			92.00		50.673E-03
			94.00		48.832E-03
			96.00		46.769E-03
			98.00		44.914E-03
			100.00		43.114E-03
			102.00		41.500E-03
			104.00		39.825E-03
			106.00		38.405E-03
			108.00		36.763E-03
			110.00		35.620E-03
			112.00		34.185E-03
			114.00		33.276E-03
		END_DATA
	END_SCAN  5
END_SCAN_DATA
