BEGIN_SCAN_DATA
	FORMAT=CC-Export V1.9                  
	FILE_CREATION_DATE=29-Jul-2022 17:04:42
	LAST_MODIFIED=29-Jul-2022 17:04:42
	BEGIN_SCAN  1
		TASK_NAME=tba PDD Profiles
		PROGRAM=WaterTankScans
		COMMENT=PDD + 5x X
		MEAS_DATE=08-Feb-2021 10:06:04
		LINAC=TRUEBEAMSN4791
		MODALITY=X
		ISOCENTER=1000.00
		INPLANE_AXIS=Y
		CROSSPLANE_AXIS=X
		DEPTH_AXIS=Depth
		INPLANE_AXIS_DIR=TARGET_GUN
		CROSSPLANE_AXIS_DIR=LEFT_RIGHT
		DEPTH_AXIS_DIR=UP_DOWN
		ENERGY=6.00
		NOMINAL_DMAX=15.00
		SSD=900.00
		SCD=450.00
		WEDGE_ANGLE=0.00
		FIELD_INPLANE=150.00
		FIELD_CROSSPLANE=150.00
		FIELD_TYPE=RECTANGULAR
		GANTRY=0.00
		GANTRY_UPRIGHT_POSITION=0
		GANTRY_ROTATION=CW
		COLL_ANGLE=0.00
		COLL_OFFSET_INPLANE=0.00
		COLL_OFFSET_CROSSPLANE=0.00
		SCAN_DEVICE=BeamScan
		SCAN_DEVICE_SETUP=BARA_LEFT_RIGHT
		ELECTROMETER=BeamScan
		RANGE_FIELD=LOW
		RANGE_REFERENCE=MEDIUM
		DETECTOR=THIMBLE_CHAMBER
		DETECTOR_SUBCODE=SEMIFLEX
		DETECTOR_RADIUS=2.40
		DETECTOR_NAME=PTW 31021 Semiflex 3D (1)
		DETECTOR_SN=142316
		DETECTOR_CALIBRATION=588000000.00
		DETECTOR_IS_CALIBRATED=1
		DETECTOR_REFERENCE=THIMBLE_CHAMBER
		DETECTOR_REFERENCE_SUBCODE=SEMIFLEX
		DETECTOR_REFERENCE_RADIUS=2.75
		DETECTOR_REFERENCE_NAME=PTW 31010 Semiflex (1)
		DETECTOR_REFERENCE_SN=—
		DETECTOR_REFERENCE_IS_CALIBRATED=0
		DETECTOR_REFERENCE_CALIBRATION=303000000.00
		DETECTOR_HV=400.0
		DETECTOR_REFERENCE_HV=400.0
		DETECTOR_ORIENTATION=HORIZONTAL
		FILTER=FF
		SCAN_SPEED_PROFILE=12.50
		SCAN_PROF_SPEED_DEP=DEPTH
		SCAN_SPEED_PDD=12.50
		SCAN_PDD_SPEED_DEP=ENERGY
		DETECTOR_TYPE=T31021
		REF_FIELD_DEPTH=100.00
		REF_FIELD_DEFINED=ISOCENTER
		REF_FIELD_INPLANE=100.00
		REF_FIELD_CROSSPLANE=100.00
		REF_SCAN_POSITIONS=-85.00;-84.00;-83.00;-82.00;-81.00;-80.00;-79.00;-78.00;-77.00;-76.00;-75.00;-74.00;-73.00;-72.00;-71.00;-70.00;-69.00;-68.00;-67.00;-66.00;-65.00;-64.00;-63.00;-62.00;-61.00;-60.00;-59.00;-58.00;-57.00;-56.00;-55.00;-54.00;-53.00;-52.00;-51.00;-50.00;-49.00;-48.00;-47.00;-46.00;-45.00;-44.00;-43.00;-42.00;-41.00;-40.00;-39.00;-38.00;-37.00;-36.00;-35.00;-34.00;-33.00;-32.00;-31.00;-30.00;-29.00;-28.00;-27.00;-26.00;-25.00;-24.00;-23.00;-22.00;-21.00;-20.00;-19.00;-18.00;-17.00;-16.00;-15.00;-14.00;-13.00;-12.00;-11.00;-10.00;-9.00;-8.00;-7.00;-6.00;-5.00;-4.00;-3.00;-2.00;-1.00;0.00;1.00;2.00;3.00;4.00;5.00;6.00;7.00;8.00;9.00;10.00;11.00;12.00;13.00;14.00;15.00;16.00;17.00;18.00;19.00;20.00;21.00;22.00;23.00;24.00;25.00;26.00;27.00;28.00;29.00;30.00;31.00;32.00;33.00;34.00;35.00;36.00;37.00;38.00;39.00;40.00;41.00;42.00;43.00;44.00;45.00;46.00;47.00;48.00;49.00;50.00;51.00;52.00;53.00;54.00;55.00;56.00;57.00;58.00;59.00;60.00;61.00;62.00;63.00;64.00;65.00;66.00;67.00;68.00;69.00;70.00;71.00;72.00;73.00;74.00;75.00;76.00;77.00;78.00;79.00;80.00;81.00;82.00;83.00;84.00;85.00;
		REF_OVERSCAN_FACTOR=1.00
		SCAN_CURVETYPE=CROSSPLANE_PROFILE
		SCAN_DEPTH=15.00
		SCAN_OFFAXIS_INPLANE=0.00
		SCAN_OFFAXIS_CROSSPLANE=0.00
		SCAN_ANGLE=0.00
		SCAN_DIAGONAL=NOT_DIAGONAL
		SCAN_DIRECTION=POSITIVE
		MEAS_MEDIUM=WATER
		MEAS_PRESET=MEAS_CONTINUOUS_REFERENCE_SCAN
		MEAS_TIME=0.080
		MEAS_UNIT=A.U.
		INCLINATION_ANGLE=0.00
		PRESSURE=1013.25
		TEMPERATURE=20.00
		NORM_TEMPERATURE=20.00
		CORRECTION_FACTOR=1.0000
		EXPECTED_MAX_DOSE_RATE=3.00
		EPOM_DEPTH_SHIFT=0.2
		EPOM_MODE=SHIFT_PROTOCOL
		CORRECTIONS=SMOOTHED_CORR;CAX_CORR;SYMMETRY_CORR;INTERPOLATED_CORR;
		BEGIN_DATA
			-100.00		51.201E-03
			-98.00		54.141E-03
			-96.00		57.195E-03
			-94.00		61.388E-03
			-92.00		65.238E-03
			-90.00		69.697E-03
			-88.00		74.285E-03
			-86.00		79.708E-03
			-84.00		85.940E-03
			-82.00		92.405E-03
			-80.00		101.17E-03
			-78.00		113.23E-03
			-76.00		132.40E-03
			-74.00		171.55E-03
			-72.00		286.50E-03
			-70.00		610.50E-03
			-68.00		1.0817E+00
			-66.00		1.4593E+00
			-64.00		1.6139E+00
			-62.00		1.6625E+00
			-60.00		1.6830E+00
			-58.00		1.6946E+00
			-56.00		1.7020E+00
			-54.00		1.7066E+00
			-52.00		1.7104E+00
			-50.00		1.7115E+00
			-48.00		1.7128E+00
			-46.00		1.7161E+00
			-44.00		1.7173E+00
			-42.00		1.7145E+00
			-40.00		1.7134E+00
			-38.00		1.7104E+00
			-36.00		1.7080E+00
			-34.00		1.7075E+00
			-32.00		1.7065E+00
			-30.00		1.7040E+00
			-28.00		1.7039E+00
			-26.00		1.7045E+00
			-24.00		1.7037E+00
			-22.00		1.7027E+00
			-20.00		1.7033E+00
			-18.00		1.7018E+00
			-16.00		1.7002E+00
			-14.00		1.6996E+00
			-12.00		1.6976E+00
			-10.00		1.6971E+00
			-8.00		1.6948E+00
			-6.00		1.6909E+00
			-4.00		1.6902E+00
			-2.00		1.6892E+00
			0.00		1.6897E+00
			2.00		1.6892E+00
			4.00		1.6902E+00
			6.00		1.6909E+00
			8.00		1.6948E+00
			10.00		1.6971E+00
			12.00		1.6976E+00
			14.00		1.6996E+00
			16.00		1.7002E+00
			18.00		1.7018E+00
			20.00		1.7033E+00
			22.00		1.7027E+00
			24.00		1.7037E+00
			26.00		1.7045E+00
			28.00		1.7039E+00
			30.00		1.7040E+00
			32.00		1.7065E+00
			34.00		1.7075E+00
			36.00		1.7080E+00
			38.00		1.7104E+00
			40.00		1.7134E+00
			42.00		1.7145E+00
			44.00		1.7173E+00
			46.00		1.7161E+00
			48.00		1.7128E+00
			50.00		1.7115E+00
			52.00		1.7104E+00
			54.00		1.7066E+00
			56.00		1.7020E+00
			58.00		1.6946E+00
			60.00		1.6830E+00
			62.00		1.6625E+00
			64.00		1.6139E+00
			66.00		1.4593E+00
			68.00		1.0817E+00
			70.00		610.50E-03
			72.00		286.50E-03
			74.00		171.55E-03
			76.00		132.40E-03
			78.00		113.23E-03
			80.00		101.17E-03
			82.00		92.405E-03
			84.00		85.940E-03
			86.00		79.708E-03
			88.00		74.285E-03
			90.00		69.697E-03
			92.00		65.238E-03
			94.00		61.388E-03
			96.00		57.195E-03
			98.00		54.141E-03
			100.00		51.201E-03
		END_DATA
	END_SCAN  1
	BEGIN_SCAN  2
		TASK_NAME=tba PDD Profiles
		PROGRAM=WaterTankScans
		COMMENT=PDD + 5x X
		MEAS_DATE=08-Feb-2021 10:06:26
		LINAC=TRUEBEAMSN4791
		MODALITY=X
		ISOCENTER=1000.00
		INPLANE_AXIS=Y
		CROSSPLANE_AXIS=X
		DEPTH_AXIS=Depth
		INPLANE_AXIS_DIR=TARGET_GUN
		CROSSPLANE_AXIS_DIR=LEFT_RIGHT
		DEPTH_AXIS_DIR=UP_DOWN
		ENERGY=6.00
		NOMINAL_DMAX=15.00
		SSD=900.00
		SCD=450.00
		WEDGE_ANGLE=0.00
		FIELD_INPLANE=150.00
		FIELD_CROSSPLANE=150.00
		FIELD_TYPE=RECTANGULAR
		GANTRY=0.00
		GANTRY_UPRIGHT_POSITION=0
		GANTRY_ROTATION=CW
		COLL_ANGLE=0.00
		COLL_OFFSET_INPLANE=0.00
		COLL_OFFSET_CROSSPLANE=0.00
		SCAN_DEVICE=BeamScan
		SCAN_DEVICE_SETUP=BARA_LEFT_RIGHT
		ELECTROMETER=BeamScan
		RANGE_FIELD=LOW
		RANGE_REFERENCE=MEDIUM
		DETECTOR=THIMBLE_CHAMBER
		DETECTOR_SUBCODE=SEMIFLEX
		DETECTOR_RADIUS=2.40
		DETECTOR_NAME=PTW 31021 Semiflex 3D (1)
		DETECTOR_SN=142316
		DETECTOR_CALIBRATION=588000000.00
		DETECTOR_IS_CALIBRATED=1
		DETECTOR_REFERENCE=THIMBLE_CHAMBER
		DETECTOR_REFERENCE_SUBCODE=SEMIFLEX
		DETECTOR_REFERENCE_RADIUS=2.75
		DETECTOR_REFERENCE_NAME=PTW 31010 Semiflex (1)
		DETECTOR_REFERENCE_SN=—
		DETECTOR_REFERENCE_IS_CALIBRATED=0
		DETECTOR_REFERENCE_CALIBRATION=303000000.00
		DETECTOR_HV=400.0
		DETECTOR_REFERENCE_HV=400.0
		DETECTOR_ORIENTATION=HORIZONTAL
		FILTER=FF
		SCAN_SPEED_PROFILE=12.50
		SCAN_PROF_SPEED_DEP=DEPTH
		SCAN_SPEED_PDD=12.50
		SCAN_PDD_SPEED_DEP=ENERGY
		DETECTOR_TYPE=T31021
		REF_FIELD_DEPTH=100.00
		REF_FIELD_DEFINED=ISOCENTER
		REF_FIELD_INPLANE=100.00
		REF_FIELD_CROSSPLANE=100.00
		REF_SCAN_POSITIONS=-85.00;-84.00;-83.00;-82.00;-81.00;-80.00;-79.00;-78.00;-77.00;-76.00;-75.00;-74.00;-73.00;-72.00;-71.00;-70.00;-69.00;-68.00;-67.00;-66.00;-65.00;-64.00;-63.00;-62.00;-61.00;-60.00;-59.00;-58.00;-57.00;-56.00;-55.00;-54.00;-53.00;-52.00;-51.00;-50.00;-49.00;-48.00;-47.00;-46.00;-45.00;-44.00;-43.00;-42.00;-41.00;-40.00;-39.00;-38.00;-37.00;-36.00;-35.00;-34.00;-33.00;-32.00;-31.00;-30.00;-29.00;-28.00;-27.00;-26.00;-25.00;-24.00;-23.00;-22.00;-21.00;-20.00;-19.00;-18.00;-17.00;-16.00;-15.00;-14.00;-13.00;-12.00;-11.00;-10.00;-9.00;-8.00;-7.00;-6.00;-5.00;-4.00;-3.00;-2.00;-1.00;0.00;1.00;2.00;3.00;4.00;5.00;6.00;7.00;8.00;9.00;10.00;11.00;12.00;13.00;14.00;15.00;16.00;17.00;18.00;19.00;20.00;21.00;22.00;23.00;24.00;25.00;26.00;27.00;28.00;29.00;30.00;31.00;32.00;33.00;34.00;35.00;36.00;37.00;38.00;39.00;40.00;41.00;42.00;43.00;44.00;45.00;46.00;47.00;48.00;49.00;50.00;51.00;52.00;53.00;54.00;55.00;56.00;57.00;58.00;59.00;60.00;61.00;62.00;63.00;64.00;65.00;66.00;67.00;68.00;69.00;70.00;71.00;72.00;73.00;74.00;75.00;76.00;77.00;78.00;79.00;80.00;81.00;82.00;83.00;84.00;85.00;
		REF_OVERSCAN_FACTOR=1.00
		SCAN_CURVETYPE=CROSSPLANE_PROFILE
		SCAN_DEPTH=50.00
		SCAN_OFFAXIS_INPLANE=0.00
		SCAN_OFFAXIS_CROSSPLANE=0.00
		SCAN_ANGLE=0.00
		SCAN_DIAGONAL=NOT_DIAGONAL
		SCAN_DIRECTION=NEGATIVE
		MEAS_MEDIUM=WATER
		MEAS_PRESET=MEAS_CONTINUOUS_REFERENCE_SCAN
		MEAS_TIME=0.080
		MEAS_UNIT=A.U.
		INCLINATION_ANGLE=0.00
		PRESSURE=1013.25
		TEMPERATURE=20.00
		NORM_TEMPERATURE=20.00
		CORRECTION_FACTOR=1.0000
		EXPECTED_MAX_DOSE_RATE=3.00
		EPOM_DEPTH_SHIFT=0.2
		EPOM_MODE=SHIFT_PROTOCOL
		CORRECTIONS=SMOOTHED_CORR;CAX_CORR;SYMMETRY_CORR;INTERPOLATED_CORR;
		BEGIN_DATA
			-104.00		57.468E-03
			-102.00		61.129E-03
			-100.00		64.741E-03
			-98.00		69.196E-03
			-96.00		73.349E-03
			-94.00		78.287E-03
			-92.00		83.889E-03
			-90.00		90.499E-03
			-88.00		96.841E-03
			-86.00		104.14E-03
			-84.00		112.88E-03
			-82.00		124.35E-03
			-80.00		139.19E-03
			-78.00		163.37E-03
			-76.00		211.49E-03
			-74.00		350.13E-03
			-72.00		654.12E-03
			-70.00		1.0212E+00
			-68.00		1.2676E+00
			-66.00		1.3609E+00
			-64.00		1.3957E+00
			-62.00		1.4142E+00
			-60.00		1.4276E+00
			-58.00		1.4356E+00
			-56.00		1.4420E+00
			-54.00		1.4476E+00
			-52.00		1.4522E+00
			-50.00		1.4564E+00
			-48.00		1.4574E+00
			-46.00		1.4597E+00
			-44.00		1.4614E+00
			-42.00		1.4634E+00
			-40.00		1.4635E+00
			-38.00		1.4625E+00
			-36.00		1.4610E+00
			-34.00		1.4599E+00
			-32.00		1.4602E+00
			-30.00		1.4622E+00
			-28.00		1.4626E+00
			-26.00		1.4625E+00
			-24.00		1.4632E+00
			-22.00		1.4649E+00
			-20.00		1.4636E+00
			-18.00		1.4632E+00
			-16.00		1.4625E+00
			-14.00		1.4610E+00
			-12.00		1.4595E+00
			-10.00		1.4583E+00
			-8.00		1.4562E+00
			-6.00		1.4552E+00
			-4.00		1.4546E+00
			-2.00		1.4543E+00
			0.00		1.4548E+00
			2.00		1.4543E+00
			4.00		1.4546E+00
			6.00		1.4552E+00
			8.00		1.4562E+00
			10.00		1.4583E+00
			12.00		1.4595E+00
			14.00		1.4610E+00
			16.00		1.4625E+00
			18.00		1.4632E+00
			20.00		1.4636E+00
			22.00		1.4649E+00
			24.00		1.4632E+00
			26.00		1.4625E+00
			28.00		1.4626E+00
			30.00		1.4622E+00
			32.00		1.4602E+00
			34.00		1.4599E+00
			36.00		1.4610E+00
			38.00		1.4625E+00
			40.00		1.4635E+00
			42.00		1.4634E+00
			44.00		1.4614E+00
			46.00		1.4597E+00
			48.00		1.4574E+00
			50.00		1.4564E+00
			52.00		1.4522E+00
			54.00		1.4476E+00
			56.00		1.4420E+00
			58.00		1.4356E+00
			60.00		1.4276E+00
			62.00		1.4142E+00
			64.00		1.3957E+00
			66.00		1.3609E+00
			68.00		1.2676E+00
			70.00		1.0212E+00
			72.00		654.12E-03
			74.00		350.13E-03
			76.00		211.49E-03
			78.00		163.37E-03
			80.00		139.19E-03
			82.00		124.35E-03
			84.00		112.88E-03
			86.00		104.14E-03
			88.00		96.841E-03
			90.00		90.499E-03
			92.00		83.889E-03
			94.00		78.287E-03
			96.00		73.349E-03
			98.00		69.196E-03
			100.00		64.741E-03
			102.00		61.129E-03
			104.00		57.468E-03
		END_DATA
	END_SCAN  2
	BEGIN_SCAN  3
		TASK_NAME=tba PDD Profiles
		PROGRAM=WaterTankScans
		COMMENT=PDD + 5x X
		MEAS_DATE=08-Feb-2021 10:06:46
		LINAC=TRUEBEAMSN4791
		MODALITY=X
		ISOCENTER=1000.00
		INPLANE_AXIS=Y
		CROSSPLANE_AXIS=X
		DEPTH_AXIS=Depth
		INPLANE_AXIS_DIR=TARGET_GUN
		CROSSPLANE_AXIS_DIR=LEFT_RIGHT
		DEPTH_AXIS_DIR=UP_DOWN
		ENERGY=6.00
		NOMINAL_DMAX=15.00
		SSD=900.00
		SCD=450.00
		WEDGE_ANGLE=0.00
		FIELD_INPLANE=150.00
		FIELD_CROSSPLANE=150.00
		FIELD_TYPE=RECTANGULAR
		GANTRY=0.00
		GANTRY_UPRIGHT_POSITION=0
		GANTRY_ROTATION=CW
		COLL_ANGLE=0.00
		COLL_OFFSET_INPLANE=0.00
		COLL_OFFSET_CROSSPLANE=0.00
		SCAN_DEVICE=BeamScan
		SCAN_DEVICE_SETUP=BARA_LEFT_RIGHT
		ELECTROMETER=BeamScan
		RANGE_FIELD=LOW
		RANGE_REFERENCE=MEDIUM
		DETECTOR=THIMBLE_CHAMBER
		DETECTOR_SUBCODE=SEMIFLEX
		DETECTOR_RADIUS=2.40
		DETECTOR_NAME=PTW 31021 Semiflex 3D (1)
		DETECTOR_SN=142316
		DETECTOR_CALIBRATION=588000000.00
		DETECTOR_IS_CALIBRATED=1
		DETECTOR_REFERENCE=THIMBLE_CHAMBER
		DETECTOR_REFERENCE_SUBCODE=SEMIFLEX
		DETECTOR_REFERENCE_RADIUS=2.75
		DETECTOR_REFERENCE_NAME=PTW 31010 Semiflex (1)
		DETECTOR_REFERENCE_SN=—
		DETECTOR_REFERENCE_IS_CALIBRATED=0
		DETECTOR_REFERENCE_CALIBRATION=303000000.00
		DETECTOR_HV=400.0
		DETECTOR_REFERENCE_HV=400.0
		DETECTOR_ORIENTATION=HORIZONTAL
		FILTER=FF
		SCAN_SPEED_PROFILE=12.50
		SCAN_PROF_SPEED_DEP=DEPTH
		SCAN_SPEED_PDD=12.50
		SCAN_PDD_SPEED_DEP=ENERGY
		DETECTOR_TYPE=T31021
		REF_FIELD_DEPTH=100.00
		REF_FIELD_DEFINED=ISOCENTER
		REF_FIELD_INPLANE=100.00
		REF_FIELD_CROSSPLANE=100.00
		REF_SCAN_POSITIONS=-85.00;-84.00;-83.00;-82.00;-81.00;-80.00;-79.00;-78.00;-77.00;-76.00;-75.00;-74.00;-73.00;-72.00;-71.00;-70.00;-69.00;-68.00;-67.00;-66.00;-65.00;-64.00;-63.00;-62.00;-61.00;-60.00;-59.00;-58.00;-57.00;-56.00;-55.00;-54.00;-53.00;-52.00;-51.00;-50.00;-49.00;-48.00;-47.00;-46.00;-45.00;-44.00;-43.00;-42.00;-41.00;-40.00;-39.00;-38.00;-37.00;-36.00;-35.00;-34.00;-33.00;-32.00;-31.00;-30.00;-29.00;-28.00;-27.00;-26.00;-25.00;-24.00;-23.00;-22.00;-21.00;-20.00;-19.00;-18.00;-17.00;-16.00;-15.00;-14.00;-13.00;-12.00;-11.00;-10.00;-9.00;-8.00;-7.00;-6.00;-5.00;-4.00;-3.00;-2.00;-1.00;0.00;1.00;2.00;3.00;4.00;5.00;6.00;7.00;8.00;9.00;10.00;11.00;12.00;13.00;14.00;15.00;16.00;17.00;18.00;19.00;20.00;21.00;22.00;23.00;24.00;25.00;26.00;27.00;28.00;29.00;30.00;31.00;32.00;33.00;34.00;35.00;36.00;37.00;38.00;39.00;40.00;41.00;42.00;43.00;44.00;45.00;46.00;47.00;48.00;49.00;50.00;51.00;52.00;53.00;54.00;55.00;56.00;57.00;58.00;59.00;60.00;61.00;62.00;63.00;64.00;65.00;66.00;67.00;68.00;69.00;70.00;71.00;72.00;73.00;74.00;75.00;76.00;77.00;78.00;79.00;80.00;81.00;82.00;83.00;84.00;85.00;
		REF_OVERSCAN_FACTOR=1.00
		SCAN_CURVETYPE=CROSSPLANE_PROFILE
		SCAN_DEPTH=100.00
		SCAN_OFFAXIS_INPLANE=0.00
		SCAN_OFFAXIS_CROSSPLANE=0.00
		SCAN_ANGLE=0.00
		SCAN_DIAGONAL=NOT_DIAGONAL
		SCAN_DIRECTION=POSITIVE
		MEAS_MEDIUM=WATER
		MEAS_PRESET=MEAS_CONTINUOUS_REFERENCE_SCAN
		MEAS_TIME=0.080
		MEAS_UNIT=A.U.
		INCLINATION_ANGLE=0.00
		PRESSURE=1013.25
		TEMPERATURE=20.00
		NORM_TEMPERATURE=20.00
		CORRECTION_FACTOR=1.0000
		EXPECTED_MAX_DOSE_RATE=3.00
		EPOM_DEPTH_SHIFT=0.2
		EPOM_MODE=SHIFT_PROTOCOL
		CORRECTIONS=SMOOTHED_CORR;CAX_CORR;SYMMETRY_CORR;INTERPOLATED_CORR;
		BEGIN_DATA
			-110.00		64.955E-03
			-108.00		67.220E-03
			-106.00		70.635E-03
			-104.00		74.942E-03
			-102.00		79.452E-03
			-100.00		83.875E-03
			-98.00		88.714E-03
			-96.00		94.569E-03
			-94.00		100.39E-03
			-92.00		106.74E-03
			-90.00		114.15E-03
			-88.00		122.08E-03
			-86.00		131.83E-03
			-84.00		144.47E-03
			-82.00		162.75E-03
			-80.00		197.60E-03
			-78.00		287.82E-03
			-76.00		486.93E-03
			-74.00		741.32E-03
			-72.00		928.91E-03
			-70.00		1.0106E+00
			-68.00		1.0424E+00
			-66.00		1.0595E+00
			-64.00		1.0716E+00
			-62.00		1.0817E+00
			-60.00		1.0879E+00
			-58.00		1.0951E+00
			-56.00		1.1004E+00
			-54.00		1.1048E+00
			-52.00		1.1095E+00
			-50.00		1.1126E+00
			-48.00		1.1155E+00
			-46.00		1.1188E+00
			-44.00		1.1208E+00
			-42.00		1.1220E+00
			-40.00		1.1224E+00
			-38.00		1.1236E+00
			-36.00		1.1245E+00
			-34.00		1.1244E+00
			-32.00		1.1260E+00
			-30.00		1.1281E+00
			-28.00		1.1285E+00
			-26.00		1.1302E+00
			-24.00		1.1318E+00
			-22.00		1.1318E+00
			-20.00		1.1316E+00
			-18.00		1.1307E+00
			-16.00		1.1311E+00
			-14.00		1.1317E+00
			-12.00		1.1310E+00
			-10.00		1.1302E+00
			-8.00		1.1289E+00
			-6.00		1.1295E+00
			-4.00		1.1288E+00
			-2.00		1.1291E+00
			0.00		1.1288E+00
			2.00		1.1291E+00
			4.00		1.1288E+00
			6.00		1.1295E+00
			8.00		1.1289E+00
			10.00		1.1302E+00
			12.00		1.1310E+00
			14.00		1.1317E+00
			16.00		1.1311E+00
			18.00		1.1307E+00
			20.00		1.1316E+00
			22.00		1.1318E+00
			24.00		1.1318E+00
			26.00		1.1302E+00
			28.00		1.1285E+00
			30.00		1.1281E+00
			32.00		1.1260E+00
			34.00		1.1244E+00
			36.00		1.1245E+00
			38.00		1.1236E+00
			40.00		1.1224E+00
			42.00		1.1220E+00
			44.00		1.1208E+00
			46.00		1.1188E+00
			48.00		1.1155E+00
			50.00		1.1126E+00
			52.00		1.1095E+00
			54.00		1.1048E+00
			56.00		1.1004E+00
			58.00		1.0951E+00
			60.00		1.0879E+00
			62.00		1.0817E+00
			64.00		1.0716E+00
			66.00		1.0595E+00
			68.00		1.0424E+00
			70.00		1.0106E+00
			72.00		928.91E-03
			74.00		741.32E-03
			76.00		486.93E-03
			78.00		287.82E-03
			80.00		197.60E-03
			82.00		162.75E-03
			84.00		144.47E-03
			86.00		131.83E-03
			88.00		122.08E-03
			90.00		114.15E-03
			92.00		106.74E-03
			94.00		100.39E-03
			96.00		94.569E-03
			98.00		88.714E-03
			100.00		83.875E-03
			102.00		79.452E-03
			104.00		74.942E-03
			106.00		70.635E-03
			108.00		67.220E-03
			110.00		64.955E-03
		END_DATA
	END_SCAN  3
	BEGIN_SCAN  4
		TASK_NAME=tba PDD Profiles
		PROGRAM=WaterTankScans
		COMMENT=PDD + 5x X
		MEAS_DATE=08-Feb-2021 10:07:07
		LINAC=TRUEBEAMSN4791
		MODALITY=X
		ISOCENTER=1000.00
		INPLANE_AXIS=Y
		CROSSPLANE_AXIS=X
		DEPTH_AXIS=Depth
		INPLANE_AXIS_DIR=TARGET_GUN
		CROSSPLANE_AXIS_DIR=LEFT_RIGHT
		DEPTH_AXIS_DIR=UP_DOWN
		ENERGY=6.00
		NOMINAL_DMAX=15.00
		SSD=900.00
		SCD=450.00
		WEDGE_ANGLE=0.00
		FIELD_INPLANE=150.00
		FIELD_CROSSPLANE=150.00
		FIELD_TYPE=RECTANGULAR
		GANTRY=0.00
		GANTRY_UPRIGHT_POSITION=0
		GANTRY_ROTATION=CW
		COLL_ANGLE=0.00
		COLL_OFFSET_INPLANE=0.00
		COLL_OFFSET_CROSSPLANE=0.00
		SCAN_DEVICE=BeamScan
		SCAN_DEVICE_SETUP=BARA_LEFT_RIGHT
		ELECTROMETER=BeamScan
		RANGE_FIELD=LOW
		RANGE_REFERENCE=MEDIUM
		DETECTOR=THIMBLE_CHAMBER
		DETECTOR_SUBCODE=SEMIFLEX
		DETECTOR_RADIUS=2.40
		DETECTOR_NAME=PTW 31021 Semiflex 3D (1)
		DETECTOR_SN=142316
		DETECTOR_CALIBRATION=588000000.00
		DETECTOR_IS_CALIBRATED=1
		DETECTOR_REFERENCE=THIMBLE_CHAMBER
		DETECTOR_REFERENCE_SUBCODE=SEMIFLEX
		DETECTOR_REFERENCE_RADIUS=2.75
		DETECTOR_REFERENCE_NAME=PTW 31010 Semiflex (1)
		DETECTOR_REFERENCE_SN=—
		DETECTOR_REFERENCE_IS_CALIBRATED=0
		DETECTOR_REFERENCE_CALIBRATION=303000000.00
		DETECTOR_HV=400.0
		DETECTOR_REFERENCE_HV=400.0
		DETECTOR_ORIENTATION=HORIZONTAL
		FILTER=FF
		SCAN_SPEED_PROFILE=10.00
		SCAN_PROF_SPEED_DEP=DEPTH
		SCAN_SPEED_PDD=12.50
		SCAN_PDD_SPEED_DEP=ENERGY
		DETECTOR_TYPE=T31021
		REF_FIELD_DEPTH=100.00
		REF_FIELD_DEFINED=ISOCENTER
		REF_FIELD_INPLANE=100.00
		REF_FIELD_CROSSPLANE=100.00
		REF_SCAN_POSITIONS=-85.00;-84.00;-83.00;-82.00;-81.00;-80.00;-79.00;-78.00;-77.00;-76.00;-75.00;-74.00;-73.00;-72.00;-71.00;-70.00;-69.00;-68.00;-67.00;-66.00;-65.00;-64.00;-63.00;-62.00;-61.00;-60.00;-59.00;-58.00;-57.00;-56.00;-55.00;-54.00;-53.00;-52.00;-51.00;-50.00;-49.00;-48.00;-47.00;-46.00;-45.00;-44.00;-43.00;-42.00;-41.00;-40.00;-39.00;-38.00;-37.00;-36.00;-35.00;-34.00;-33.00;-32.00;-31.00;-30.00;-29.00;-28.00;-27.00;-26.00;-25.00;-24.00;-23.00;-22.00;-21.00;-20.00;-19.00;-18.00;-17.00;-16.00;-15.00;-14.00;-13.00;-12.00;-11.00;-10.00;-9.00;-8.00;-7.00;-6.00;-5.00;-4.00;-3.00;-2.00;-1.00;0.00;1.00;2.00;3.00;4.00;5.00;6.00;7.00;8.00;9.00;10.00;11.00;12.00;13.00;14.00;15.00;16.00;17.00;18.00;19.00;20.00;21.00;22.00;23.00;24.00;25.00;26.00;27.00;28.00;29.00;30.00;31.00;32.00;33.00;34.00;35.00;36.00;37.00;38.00;39.00;40.00;41.00;42.00;43.00;44.00;45.00;46.00;47.00;48.00;49.00;50.00;51.00;52.00;53.00;54.00;55.00;56.00;57.00;58.00;59.00;60.00;61.00;62.00;63.00;64.00;65.00;66.00;67.00;68.00;69.00;70.00;71.00;72.00;73.00;74.00;75.00;76.00;77.00;78.00;79.00;80.00;81.00;82.00;83.00;84.00;85.00;
		REF_OVERSCAN_FACTOR=1.00
		SCAN_CURVETYPE=CROSSPLANE_PROFILE
		SCAN_DEPTH=200.00
		SCAN_OFFAXIS_INPLANE=0.00
		SCAN_OFFAXIS_CROSSPLANE=0.00
		SCAN_ANGLE=0.00
		SCAN_DIAGONAL=NOT_DIAGONAL
		SCAN_DIRECTION=NEGATIVE
		MEAS_MEDIUM=WATER
		MEAS_PRESET=MEAS_CONTINUOUS_REFERENCE_SCAN
		MEAS_TIME=0.100
		MEAS_UNIT=A.U.
		INCLINATION_ANGLE=0.00
		PRESSURE=1013.25
		TEMPERATURE=20.00
		NORM_TEMPERATURE=20.00
		CORRECTION_FACTOR=1.0000
		EXPECTED_MAX_DOSE_RATE=3.00
		EPOM_DEPTH_SHIFT=0.2
		EPOM_MODE=SHIFT_PROTOCOL
		CORRECTIONS=SMOOTHED_CORR;CAX_CORR;SYMMETRY_CORR;INTERPOLATED_CORR;
		BEGIN_DATA
			-120.00		57.418E-03
			-118.00		59.621E-03
			-116.00		62.576E-03
			-114.00		65.433E-03
			-112.00		68.339E-03
			-110.00		71.106E-03
			-108.00		74.626E-03
			-106.00		78.042E-03
			-104.00		81.770E-03
			-102.00		85.953E-03
			-100.00		90.094E-03
			-98.00		94.615E-03
			-96.00		99.582E-03
			-94.00		105.11E-03
			-92.00		112.33E-03
			-90.00		121.92E-03
			-88.00		139.38E-03
			-86.00		178.23E-03
			-84.00		264.43E-03
			-82.00		388.11E-03
			-80.00		495.07E-03
			-78.00		551.73E-03
			-76.00		576.42E-03
			-74.00		588.65E-03
			-72.00		596.34E-03
			-70.00		602.50E-03
			-68.00		607.74E-03
			-66.00		612.46E-03
			-64.00		617.23E-03
			-62.00		620.90E-03
			-60.00		623.87E-03
			-58.00		627.47E-03
			-56.00		630.93E-03
			-54.00		633.83E-03
			-52.00		636.00E-03
			-50.00		637.61E-03
			-48.00		639.78E-03
			-46.00		641.96E-03
			-44.00		643.20E-03
			-42.00		644.64E-03
			-40.00		646.67E-03
			-38.00		647.48E-03
			-36.00		647.55E-03
			-34.00		648.99E-03
			-32.00		650.46E-03
			-30.00		651.39E-03
			-28.00		652.68E-03
			-26.00		653.80E-03
			-24.00		654.29E-03
			-22.00		654.92E-03
			-20.00		655.51E-03
			-18.00		656.46E-03
			-16.00		657.13E-03
			-14.00		656.68E-03
			-12.00		656.40E-03
			-10.00		656.57E-03
			-8.00		656.51E-03
			-6.00		656.35E-03
			-4.00		656.32E-03
			-2.00		656.43E-03
			0.00		656.67E-03
			2.00		656.43E-03
			4.00		656.32E-03
			6.00		656.35E-03
			8.00		656.51E-03
			10.00		656.57E-03
			12.00		656.40E-03
			14.00		656.68E-03
			16.00		657.13E-03
			18.00		656.46E-03
			20.00		655.51E-03
			22.00		654.92E-03
			24.00		654.29E-03
			26.00		653.80E-03
			28.00		652.68E-03
			30.00		651.39E-03
			32.00		650.46E-03
			34.00		648.99E-03
			36.00		647.55E-03
			38.00		647.48E-03
			40.00		646.67E-03
			42.00		644.64E-03
			44.00		643.20E-03
			46.00		641.96E-03
			48.00		639.78E-03
			50.00		637.61E-03
			52.00		636.00E-03
			54.00		633.83E-03
			56.00		630.93E-03
			58.00		627.47E-03
			60.00		623.87E-03
			62.00		620.90E-03
			64.00		617.23E-03
			66.00		612.46E-03
			68.00		607.74E-03
			70.00		602.50E-03
			72.00		596.34E-03
			74.00		588.65E-03
			76.00		576.42E-03
			78.00		551.73E-03
			80.00		495.07E-03
			82.00		388.11E-03
			84.00		264.43E-03
			86.00		178.23E-03
			88.00		139.38E-03
			90.00		121.92E-03
			92.00		112.33E-03
			94.00		105.11E-03
			96.00		99.582E-03
			98.00		94.615E-03
			100.00		90.094E-03
			102.00		85.953E-03
			104.00		81.770E-03
			106.00		78.042E-03
			108.00		74.626E-03
			110.00		71.106E-03
			112.00		68.339E-03
			114.00		65.433E-03
			116.00		62.576E-03
			118.00		59.621E-03
			120.00		57.418E-03
		END_DATA
	END_SCAN  4
	BEGIN_SCAN  5
		TASK_NAME=tba PDD Profiles
		PROGRAM=WaterTankScans
		COMMENT=PDD + 5x X
		MEAS_DATE=08-Feb-2021 10:07:38
		LINAC=TRUEBEAMSN4791
		MODALITY=X
		ISOCENTER=1000.00
		INPLANE_AXIS=Y
		CROSSPLANE_AXIS=X
		DEPTH_AXIS=Depth
		INPLANE_AXIS_DIR=TARGET_GUN
		CROSSPLANE_AXIS_DIR=LEFT_RIGHT
		DEPTH_AXIS_DIR=UP_DOWN
		ENERGY=6.00
		NOMINAL_DMAX=15.00
		SSD=900.00
		SCD=450.00
		WEDGE_ANGLE=0.00
		FIELD_INPLANE=150.00
		FIELD_CROSSPLANE=150.00
		FIELD_TYPE=RECTANGULAR
		GANTRY=0.00
		GANTRY_UPRIGHT_POSITION=0
		GANTRY_ROTATION=CW
		COLL_ANGLE=0.00
		COLL_OFFSET_INPLANE=0.00
		COLL_OFFSET_CROSSPLANE=0.00
		SCAN_DEVICE=BeamScan
		SCAN_DEVICE_SETUP=BARA_LEFT_RIGHT
		ELECTROMETER=BeamScan
		RANGE_FIELD=LOW
		RANGE_REFERENCE=MEDIUM
		DETECTOR=THIMBLE_CHAMBER
		DETECTOR_SUBCODE=SEMIFLEX
		DETECTOR_RADIUS=2.40
		DETECTOR_NAME=PTW 31021 Semiflex 3D (1)
		DETECTOR_SN=142316
		DETECTOR_CALIBRATION=588000000.00
		DETECTOR_IS_CALIBRATED=1
		DETECTOR_REFERENCE=THIMBLE_CHAMBER
		DETECTOR_REFERENCE_SUBCODE=SEMIFLEX
		DETECTOR_REFERENCE_RADIUS=2.75
		DETECTOR_REFERENCE_NAME=PTW 31010 Semiflex (1)
		DETECTOR_REFERENCE_SN=—
		DETECTOR_REFERENCE_IS_CALIBRATED=0
		DETECTOR_REFERENCE_CALIBRATION=303000000.00
		DETECTOR_HV=400.0
		DETECTOR_REFERENCE_HV=400.0
		DETECTOR_ORIENTATION=HORIZONTAL
		FILTER=FF
		SCAN_SPEED_PROFILE=10.00
		SCAN_PROF_SPEED_DEP=DEPTH
		SCAN_SPEED_PDD=12.50
		SCAN_PDD_SPEED_DEP=ENERGY
		DETECTOR_TYPE=T31021
		REF_FIELD_DEPTH=100.00
		REF_FIELD_DEFINED=ISOCENTER
		REF_FIELD_INPLANE=100.00
		REF_FIELD_CROSSPLANE=100.00
		REF_SCAN_POSITIONS=-85.00;-84.00;-83.00;-82.00;-81.00;-80.00;-79.00;-78.00;-77.00;-76.00;-75.00;-74.00;-73.00;-72.00;-71.00;-70.00;-69.00;-68.00;-67.00;-66.00;-65.00;-64.00;-63.00;-62.00;-61.00;-60.00;-59.00;-58.00;-57.00;-56.00;-55.00;-54.00;-53.00;-52.00;-51.00;-50.00;-49.00;-48.00;-47.00;-46.00;-45.00;-44.00;-43.00;-42.00;-41.00;-40.00;-39.00;-38.00;-37.00;-36.00;-35.00;-34.00;-33.00;-32.00;-31.00;-30.00;-29.00;-28.00;-27.00;-26.00;-25.00;-24.00;-23.00;-22.00;-21.00;-20.00;-19.00;-18.00;-17.00;-16.00;-15.00;-14.00;-13.00;-12.00;-11.00;-10.00;-9.00;-8.00;-7.00;-6.00;-5.00;-4.00;-3.00;-2.00;-1.00;0.00;1.00;2.00;3.00;4.00;5.00;6.00;7.00;8.00;9.00;10.00;11.00;12.00;13.00;14.00;15.00;16.00;17.00;18.00;19.00;20.00;21.00;22.00;23.00;24.00;25.00;26.00;27.00;28.00;29.00;30.00;31.00;32.00;33.00;34.00;35.00;36.00;37.00;38.00;39.00;40.00;41.00;42.00;43.00;44.00;45.00;46.00;47.00;48.00;49.00;50.00;51.00;52.00;53.00;54.00;55.00;56.00;57.00;58.00;59.00;60.00;61.00;62.00;63.00;64.00;65.00;66.00;67.00;68.00;69.00;70.00;71.00;72.00;73.00;74.00;75.00;76.00;77.00;78.00;79.00;80.00;81.00;82.00;83.00;84.00;85.00;
		REF_OVERSCAN_FACTOR=1.00
		SCAN_CURVETYPE=CROSSPLANE_PROFILE
		SCAN_DEPTH=300.00
		SCAN_OFFAXIS_INPLANE=0.00
		SCAN_OFFAXIS_CROSSPLANE=0.00
		SCAN_ANGLE=0.00
		SCAN_DIAGONAL=NOT_DIAGONAL
		SCAN_DIRECTION=POSITIVE
		MEAS_MEDIUM=WATER
		MEAS_PRESET=MEAS_CONTINUOUS_REFERENCE_SCAN
		MEAS_TIME=0.100
		MEAS_UNIT=A.U.
		INCLINATION_ANGLE=0.00
		PRESSURE=1013.25
		TEMPERATURE=20.00
		NORM_TEMPERATURE=20.00
		CORRECTION_FACTOR=1.0000
		EXPECTED_MAX_DOSE_RATE=3.00
		EPOM_DEPTH_SHIFT=0.2
		EPOM_MODE=SHIFT_PROTOCOL
		CORRECTIONS=SMOOTHED_CORR;CAX_CORR;SYMMETRY_CORR;INTERPOLATED_CORR;MODIFIED_CORR;
		BEGIN_DATA
			-130.00		42.141E-03
			-128.00		43.280E-03
			-126.00		44.799E-03
			-124.00		46.697E-03
			-122.00		48.595E-03
			-120.00		50.114E-03
			-118.00		52.392E-03
			-116.00		53.910E-03
			-114.00		56.188E-03
			-112.00		58.466E-03
			-110.00		60.744E-03
			-108.00		63.402E-03
			-106.00		65.679E-03
			-104.00		67.957E-03
			-102.00		71.374E-03
			-100.00		75.550E-03
			-98.00		80.865E-03
			-96.00		89.218E-03
			-94.00		107.06E-03
			-92.00		145.79E-03
			-90.00		206.91E-03
			-88.00		267.65E-03
			-86.00		304.86E-03
			-84.00		321.94E-03
			-82.00		330.68E-03
			-80.00		335.61E-03
			-78.00		340.17E-03
			-76.00		343.58E-03
			-74.00		345.86E-03
			-72.00		348.52E-03
			-70.00		351.18E-03
			-68.00		353.07E-03
			-66.00		355.35E-03
			-64.00		357.63E-03
			-62.00		359.53E-03
			-60.00		361.05E-03
			-58.00		362.57E-03
			-56.00		364.08E-03
			-54.00		365.60E-03
			-52.00		366.74E-03
			-50.00		368.26E-03
			-48.00		369.78E-03
			-46.00		370.54E-03
			-44.00		370.92E-03
			-42.00		370.92E-03
			-40.00		372.06E-03
			-38.00		373.58E-03
			-36.00		374.71E-03
			-34.00		375.09E-03
			-32.00		376.23E-03
			-30.00		376.61E-03
			-28.00		377.37E-03
			-26.00		377.75E-03
			-24.00		378.13E-03
			-22.00		378.89E-03
			-20.00		379.27E-03
			-18.00		379.65E-03
			-16.00		379.65E-03
			-14.00		379.65E-03
			-12.00		379.65E-03
			-10.00		379.65E-03
			-8.00		379.65E-03
			-6.00		379.65E-03
			-4.00		380.03E-03
			-2.00		380.03E-03
			0.00		379.65E-03
			2.00		380.03E-03
			4.00		380.03E-03
			6.00		379.65E-03
			8.00		379.65E-03
			10.00		379.65E-03
			12.00		379.65E-03
			14.00		379.65E-03
			16.00		379.65E-03
			18.00		379.65E-03
			20.00		379.27E-03
			22.00		378.89E-03
			24.00		378.13E-03
			26.00		377.75E-03
			28.00		377.37E-03
			30.00		376.61E-03
			32.00		376.23E-03
			34.00		375.09E-03
			36.00		374.71E-03
			38.00		373.58E-03
			40.00		372.06E-03
			42.00		370.92E-03
			44.00		370.92E-03
			46.00		370.54E-03
			48.00		369.78E-03
			50.00		368.26E-03
			52.00		366.74E-03
			54.00		365.60E-03
			56.00		364.08E-03
			58.00		362.57E-03
			60.00		361.05E-03
			62.00		359.53E-03
			64.00		357.63E-03
			66.00		355.35E-03
			68.00		353.07E-03
			70.00		351.18E-03
			72.00		348.52E-03
			74.00		345.86E-03
			76.00		343.58E-03
			78.00		340.17E-03
			80.00		335.61E-03
			82.00		330.68E-03
			84.00		321.94E-03
			86.00		304.86E-03
			88.00		267.65E-03
			90.00		206.91E-03
			92.00		145.79E-03
			94.00		107.06E-03
			96.00		89.218E-03
			98.00		80.865E-03
			100.00		75.550E-03
			102.00		71.374E-03
			104.00		67.957E-03
			106.00		65.679E-03
			108.00		63.402E-03
			110.00		60.744E-03
			112.00		58.466E-03
			114.00		56.188E-03
			116.00		53.910E-03
			118.00		52.392E-03
			120.00		50.114E-03
			122.00		48.595E-03
			124.00		46.697E-03
			126.00		44.799E-03
			128.00		43.280E-03
			130.00		42.141E-03
		END_DATA
	END_SCAN  5
END_SCAN_DATA
