BEGIN_SCAN_DATA
	FORMAT=CC-Export V1.9                  
	FILE_CREATION_DATE=29-Jul-2022 17:05:23
	LAST_MODIFIED=29-Jul-2022 17:05:23
	BEGIN_SCAN  1
		TASK_NAME=tba PDD Profiles
		PROGRAM=WaterTankScans
		COMMENT=5x X
		MEAS_DATE=08-Feb-2021 10:36:58
		LINAC=TRUEBEAMSN4791
		MODALITY=X
		ISOCENTER=1000.00
		INPLANE_AXIS=Y
		CROSSPLANE_AXIS=X
		DEPTH_AXIS=Depth
		INPLANE_AXIS_DIR=TARGET_GUN
		CROSSPLANE_AXIS_DIR=LEFT_RIGHT
		DEPTH_AXIS_DIR=UP_DOWN
		ENERGY=6.00
		NOMINAL_DMAX=15.00
		SSD=900.00
		SCD=450.00
		WEDGE_ANGLE=0.00
		FIELD_INPLANE=400.00
		FIELD_CROSSPLANE=400.00
		FIELD_TYPE=RECTANGULAR
		GANTRY=0.00
		GANTRY_UPRIGHT_POSITION=0
		GANTRY_ROTATION=CW
		COLL_ANGLE=0.00
		COLL_OFFSET_INPLANE=0.00
		COLL_OFFSET_CROSSPLANE=0.00
		SCAN_DEVICE=BeamScan
		SCAN_DEVICE_SETUP=BARA_LEFT_RIGHT
		ELECTROMETER=BeamScan
		RANGE_FIELD=LOW
		RANGE_REFERENCE=MEDIUM
		DETECTOR=THIMBLE_CHAMBER
		DETECTOR_SUBCODE=SEMIFLEX
		DETECTOR_RADIUS=2.40
		DETECTOR_NAME=PTW 31021 Semiflex 3D (1)
		DETECTOR_SN=142316
		DETECTOR_CALIBRATION=588000000.00
		DETECTOR_IS_CALIBRATED=1
		DETECTOR_REFERENCE=THIMBLE_CHAMBER
		DETECTOR_REFERENCE_SUBCODE=SEMIFLEX
		DETECTOR_REFERENCE_RADIUS=2.75
		DETECTOR_REFERENCE_NAME=PTW 31010 Semiflex (1)
		DETECTOR_REFERENCE_SN=—
		DETECTOR_REFERENCE_IS_CALIBRATED=0
		DETECTOR_REFERENCE_CALIBRATION=303000000.00
		DETECTOR_HV=400.0
		DETECTOR_REFERENCE_HV=400.0
		DETECTOR_ORIENTATION=HORIZONTAL
		FILTER=FF
		SCAN_SPEED_PROFILE=12.50
		SCAN_PROF_SPEED_DEP=DEPTH
		SCAN_SPEED_PDD=0.00
		SCAN_PDD_SPEED_DEP=ENERGY
		DETECTOR_TYPE=T31021
		REF_FIELD_DEPTH=300.00
		REF_FIELD_DEFINED=ISOCENTER
		REF_FIELD_INPLANE=100.00
		REF_FIELD_CROSSPLANE=100.00
		REF_SCAN_POSITIONS=-85.00;-84.00;-83.00;-82.00;-81.00;-80.00;-79.00;-78.00;-77.00;-76.00;-75.00;-74.00;-73.00;-72.00;-71.00;-70.00;-69.00;-68.00;-67.00;-66.00;-65.00;-64.00;-63.00;-62.00;-61.00;-60.00;-59.00;-58.00;-57.00;-56.00;-55.00;-54.00;-53.00;-52.00;-51.00;-50.00;-49.00;-48.00;-47.00;-46.00;-45.00;-44.00;-43.00;-42.00;-41.00;-40.00;-39.00;-38.00;-37.00;-36.00;-35.00;-34.00;-33.00;-32.00;-31.00;-30.00;-29.00;-28.00;-27.00;-26.00;-25.00;-24.00;-23.00;-22.00;-21.00;-20.00;-19.00;-18.00;-17.00;-16.00;-15.00;-14.00;-13.00;-12.00;-11.00;-10.00;-9.00;-8.00;-7.00;-6.00;-5.00;-4.00;-3.00;-2.00;-1.00;0.00;1.00;2.00;3.00;4.00;5.00;6.00;7.00;8.00;9.00;10.00;11.00;12.00;13.00;14.00;15.00;16.00;17.00;18.00;19.00;20.00;21.00;22.00;23.00;24.00;25.00;26.00;27.00;28.00;29.00;30.00;31.00;32.00;33.00;34.00;35.00;36.00;37.00;38.00;39.00;40.00;41.00;42.00;43.00;44.00;45.00;46.00;47.00;48.00;49.00;50.00;51.00;52.00;53.00;54.00;55.00;56.00;57.00;58.00;59.00;60.00;61.00;62.00;63.00;64.00;65.00;66.00;67.00;68.00;69.00;70.00;71.00;72.00;73.00;74.00;75.00;76.00;77.00;78.00;79.00;80.00;81.00;82.00;83.00;84.00;85.00;
		REF_OVERSCAN_FACTOR=1.00
		SCAN_CURVETYPE=CROSSPLANE_PROFILE
		SCAN_DEPTH=15.00
		SCAN_OFFAXIS_INPLANE=0.00
		SCAN_OFFAXIS_CROSSPLANE=0.00
		SCAN_ANGLE=0.00
		SCAN_DIAGONAL=NOT_DIAGONAL
		SCAN_DIRECTION=POSITIVE
		MEAS_MEDIUM=WATER
		MEAS_PRESET=MEAS_CONTINUOUS_REFERENCE_SCAN
		MEAS_TIME=0.080
		MEAS_UNIT=A.U.
		INCLINATION_ANGLE=0.00
		PRESSURE=1013.25
		TEMPERATURE=20.00
		NORM_TEMPERATURE=20.00
		CORRECTION_FACTOR=1.0000
		EXPECTED_MAX_DOSE_RATE=3.00
		EPOM_DEPTH_SHIFT=0.2
		EPOM_MODE=SHIFT_PROTOCOL
		CORRECTIONS=SMOOTHED_CORR;CAX_CORR;SYMMETRY_CORR;INTERPOLATED_CORR;MODIFIED_CORR;
		BEGIN_DATA
			-214.00		48.664E-03
			-212.00		51.160E-03
			-210.00		54.903E-03
			-208.00		57.399E-03
			-206.00		61.142E-03
			-204.00		66.133E-03
			-202.00		71.125E-03
			-200.00		77.364E-03
			-198.00		84.850E-03
			-196.00		94.833E-03
			-194.00		106.06E-03
			-192.00		122.28E-03
			-190.00		147.24E-03
			-188.00		198.40E-03
			-186.00		349.38E-03
			-184.00		601.44E-03
			-182.00		898.42E-03
			-180.00		1.1230E+00
			-178.00		1.2328E+00
			-176.00		1.2690E+00
			-174.00		1.2840E+00
			-172.00		1.2927E+00
			-170.00		1.2990E+00
			-168.00		1.3015E+00
			-166.00		1.3040E+00
			-164.00		1.3052E+00
			-162.00		1.3064E+00
			-160.00		1.3077E+00
			-158.00		1.3089E+00
			-156.00		1.3089E+00
			-154.00		1.3114E+00
			-152.00		1.3114E+00
			-150.00		1.3114E+00
			-148.00		1.3114E+00
			-146.00		1.3114E+00
			-144.00		1.3114E+00
			-142.00		1.3127E+00
			-140.00		1.3114E+00
			-138.00		1.3114E+00
			-136.00		1.3114E+00
			-134.00		1.3114E+00
			-132.00		1.3102E+00
			-130.00		1.3114E+00
			-128.00		1.3114E+00
			-126.00		1.3102E+00
			-124.00		1.3089E+00
			-122.00		1.3089E+00
			-120.00		1.3077E+00
			-118.00		1.3077E+00
			-116.00		1.3064E+00
			-114.00		1.3052E+00
			-112.00		1.3052E+00
			-110.00		1.3052E+00
			-108.00		1.3052E+00
			-106.00		1.3040E+00
			-104.00		1.3027E+00
			-102.00		1.3027E+00
			-100.00		1.3015E+00
			-98.00		1.3015E+00
			-96.00		1.3002E+00
			-94.00		1.3002E+00
			-92.00		1.3002E+00
			-90.00		1.2990E+00
			-88.00		1.2977E+00
			-86.00		1.2977E+00
			-84.00		1.2965E+00
			-82.00		1.2952E+00
			-80.00		1.2952E+00
			-78.00		1.2940E+00
			-76.00		1.2940E+00
			-74.00		1.2927E+00
			-72.00		1.2915E+00
			-70.00		1.2902E+00
			-68.00		1.2902E+00
			-66.00		1.2890E+00
			-64.00		1.2890E+00
			-62.00		1.2890E+00
			-60.00		1.2877E+00
			-58.00		1.2865E+00
			-56.00		1.2852E+00
			-54.00		1.2852E+00
			-52.00		1.2827E+00
			-50.00		1.2815E+00
			-48.00		1.2802E+00
			-46.00		1.2790E+00
			-44.00		1.2777E+00
			-42.00		1.2765E+00
			-40.00		1.2740E+00
			-38.00		1.2715E+00
			-36.00		1.2690E+00
			-34.00		1.2678E+00
			-32.00		1.2665E+00
			-30.00		1.2640E+00
			-28.00		1.2640E+00
			-26.00		1.2640E+00
			-24.00		1.2615E+00
			-22.00		1.2603E+00
			-20.00		1.2603E+00
			-18.00		1.2590E+00
			-16.00		1.2565E+00
			-14.00		1.2553E+00
			-12.00		1.2553E+00
			-10.00		1.2540E+00
			-8.00		1.2540E+00
			-6.00		1.2515E+00
			-4.00		1.2490E+00
			-2.00		1.2478E+00
			0.00		1.2478E+00
			2.00		1.2478E+00
			4.00		1.2490E+00
			6.00		1.2515E+00
			8.00		1.2540E+00
			10.00		1.2540E+00
			12.00		1.2553E+00
			14.00		1.2553E+00
			16.00		1.2565E+00
			18.00		1.2590E+00
			20.00		1.2603E+00
			22.00		1.2603E+00
			24.00		1.2615E+00
			26.00		1.2640E+00
			28.00		1.2640E+00
			30.00		1.2640E+00
			32.00		1.2665E+00
			34.00		1.2678E+00
			36.00		1.2690E+00
			38.00		1.2715E+00
			40.00		1.2740E+00
			42.00		1.2765E+00
			44.00		1.2777E+00
			46.00		1.2790E+00
			48.00		1.2802E+00
			50.00		1.2815E+00
			52.00		1.2827E+00
			54.00		1.2852E+00
			56.00		1.2852E+00
			58.00		1.2865E+00
			60.00		1.2877E+00
			62.00		1.2890E+00
			64.00		1.2890E+00
			66.00		1.2890E+00
			68.00		1.2902E+00
			70.00		1.2902E+00
			72.00		1.2915E+00
			74.00		1.2927E+00
			76.00		1.2940E+00
			78.00		1.2940E+00
			80.00		1.2952E+00
			82.00		1.2952E+00
			84.00		1.2965E+00
			86.00		1.2977E+00
			88.00		1.2977E+00
			90.00		1.2990E+00
			92.00		1.3002E+00
			94.00		1.3002E+00
			96.00		1.3002E+00
			98.00		1.3015E+00
			100.00		1.3015E+00
			102.00		1.3027E+00
			104.00		1.3027E+00
			106.00		1.3040E+00
			108.00		1.3052E+00
			110.00		1.3052E+00
			112.00		1.3052E+00
			114.00		1.3052E+00
			116.00		1.3064E+00
			118.00		1.3077E+00
			120.00		1.3077E+00
			122.00		1.3089E+00
			124.00		1.3089E+00
			126.00		1.3102E+00
			128.00		1.3114E+00
			130.00		1.3114E+00
			132.00		1.3102E+00
			134.00		1.3114E+00
			136.00		1.3114E+00
			138.00		1.3114E+00
			140.00		1.3114E+00
			142.00		1.3127E+00
			144.00		1.3114E+00
			146.00		1.3114E+00
			148.00		1.3114E+00
			150.00		1.3114E+00
			152.00		1.3114E+00
			154.00		1.3114E+00
			156.00		1.3089E+00
			158.00		1.3089E+00
			160.00		1.3077E+00
			162.00		1.3064E+00
			164.00		1.3052E+00
			166.00		1.3040E+00
			168.00		1.3015E+00
			170.00		1.2990E+00
			172.00		1.2927E+00
			174.00		1.2840E+00
			176.00		1.2690E+00
			178.00		1.2328E+00
			180.00		1.1230E+00
			182.00		898.42E-03
			184.00		601.44E-03
			186.00		349.38E-03
			188.00		198.40E-03
			190.00		147.24E-03
			192.00		122.28E-03
			194.00		106.06E-03
			196.00		94.833E-03
			198.00		84.850E-03
			200.00		77.364E-03
			202.00		71.125E-03
			204.00		66.133E-03
			206.00		61.142E-03
			208.00		57.399E-03
			210.00		54.903E-03
			212.00		51.160E-03
			214.00		48.664E-03
		END_DATA
	END_SCAN  1
	BEGIN_SCAN  2
		TASK_NAME=tba PDD Profiles
		PROGRAM=WaterTankScans
		COMMENT=5x X
		MEAS_DATE=08-Feb-2021 10:37:35
		LINAC=TRUEBEAMSN4791
		MODALITY=X
		ISOCENTER=1000.00
		INPLANE_AXIS=Y
		CROSSPLANE_AXIS=X
		DEPTH_AXIS=Depth
		INPLANE_AXIS_DIR=TARGET_GUN
		CROSSPLANE_AXIS_DIR=LEFT_RIGHT
		DEPTH_AXIS_DIR=UP_DOWN
		ENERGY=6.00
		NOMINAL_DMAX=15.00
		SSD=900.00
		SCD=450.00
		WEDGE_ANGLE=0.00
		FIELD_INPLANE=400.00
		FIELD_CROSSPLANE=400.00
		FIELD_TYPE=RECTANGULAR
		GANTRY=0.00
		GANTRY_UPRIGHT_POSITION=0
		GANTRY_ROTATION=CW
		COLL_ANGLE=0.00
		COLL_OFFSET_INPLANE=0.00
		COLL_OFFSET_CROSSPLANE=0.00
		SCAN_DEVICE=BeamScan
		SCAN_DEVICE_SETUP=BARA_LEFT_RIGHT
		ELECTROMETER=BeamScan
		RANGE_FIELD=LOW
		RANGE_REFERENCE=MEDIUM
		DETECTOR=THIMBLE_CHAMBER
		DETECTOR_SUBCODE=SEMIFLEX
		DETECTOR_RADIUS=2.40
		DETECTOR_NAME=PTW 31021 Semiflex 3D (1)
		DETECTOR_SN=142316
		DETECTOR_CALIBRATION=588000000.00
		DETECTOR_IS_CALIBRATED=1
		DETECTOR_REFERENCE=THIMBLE_CHAMBER
		DETECTOR_REFERENCE_SUBCODE=SEMIFLEX
		DETECTOR_REFERENCE_RADIUS=2.75
		DETECTOR_REFERENCE_NAME=PTW 31010 Semiflex (1)
		DETECTOR_REFERENCE_SN=—
		DETECTOR_REFERENCE_IS_CALIBRATED=0
		DETECTOR_REFERENCE_CALIBRATION=303000000.00
		DETECTOR_HV=400.0
		DETECTOR_REFERENCE_HV=400.0
		DETECTOR_ORIENTATION=HORIZONTAL
		FILTER=FF
		SCAN_SPEED_PROFILE=12.50
		SCAN_PROF_SPEED_DEP=DEPTH
		SCAN_SPEED_PDD=0.00
		SCAN_PDD_SPEED_DEP=ENERGY
		DETECTOR_TYPE=T31021
		REF_FIELD_DEPTH=300.00
		REF_FIELD_DEFINED=ISOCENTER
		REF_FIELD_INPLANE=100.00
		REF_FIELD_CROSSPLANE=100.00
		REF_SCAN_POSITIONS=-85.00;-84.00;-83.00;-82.00;-81.00;-80.00;-79.00;-78.00;-77.00;-76.00;-75.00;-74.00;-73.00;-72.00;-71.00;-70.00;-69.00;-68.00;-67.00;-66.00;-65.00;-64.00;-63.00;-62.00;-61.00;-60.00;-59.00;-58.00;-57.00;-56.00;-55.00;-54.00;-53.00;-52.00;-51.00;-50.00;-49.00;-48.00;-47.00;-46.00;-45.00;-44.00;-43.00;-42.00;-41.00;-40.00;-39.00;-38.00;-37.00;-36.00;-35.00;-34.00;-33.00;-32.00;-31.00;-30.00;-29.00;-28.00;-27.00;-26.00;-25.00;-24.00;-23.00;-22.00;-21.00;-20.00;-19.00;-18.00;-17.00;-16.00;-15.00;-14.00;-13.00;-12.00;-11.00;-10.00;-9.00;-8.00;-7.00;-6.00;-5.00;-4.00;-3.00;-2.00;-1.00;0.00;1.00;2.00;3.00;4.00;5.00;6.00;7.00;8.00;9.00;10.00;11.00;12.00;13.00;14.00;15.00;16.00;17.00;18.00;19.00;20.00;21.00;22.00;23.00;24.00;25.00;26.00;27.00;28.00;29.00;30.00;31.00;32.00;33.00;34.00;35.00;36.00;37.00;38.00;39.00;40.00;41.00;42.00;43.00;44.00;45.00;46.00;47.00;48.00;49.00;50.00;51.00;52.00;53.00;54.00;55.00;56.00;57.00;58.00;59.00;60.00;61.00;62.00;63.00;64.00;65.00;66.00;67.00;68.00;69.00;70.00;71.00;72.00;73.00;74.00;75.00;76.00;77.00;78.00;79.00;80.00;81.00;82.00;83.00;84.00;85.00;
		REF_OVERSCAN_FACTOR=1.00
		SCAN_CURVETYPE=CROSSPLANE_PROFILE
		SCAN_DEPTH=50.00
		SCAN_OFFAXIS_INPLANE=0.00
		SCAN_OFFAXIS_CROSSPLANE=0.00
		SCAN_ANGLE=0.00
		SCAN_DIAGONAL=NOT_DIAGONAL
		SCAN_DIRECTION=NEGATIVE
		MEAS_MEDIUM=WATER
		MEAS_PRESET=MEAS_CONTINUOUS_REFERENCE_SCAN
		MEAS_TIME=0.080
		MEAS_UNIT=A.U.
		INCLINATION_ANGLE=0.00
		PRESSURE=1013.25
		TEMPERATURE=20.00
		NORM_TEMPERATURE=20.00
		CORRECTION_FACTOR=1.0000
		EXPECTED_MAX_DOSE_RATE=3.00
		EPOM_DEPTH_SHIFT=0.2
		EPOM_MODE=SHIFT_PROTOCOL
		CORRECTIONS=SMOOTHED_CORR;CAX_CORR;SYMMETRY_CORR;INTERPOLATED_CORR;
		BEGIN_DATA
			-224.00		63.318E-03
			-222.00		66.363E-03
			-220.00		69.420E-03
			-218.00		73.122E-03
			-216.00		77.106E-03
			-214.00		81.555E-03
			-212.00		86.562E-03
			-210.00		92.591E-03
			-208.00		98.891E-03
			-206.00		105.65E-03
			-204.00		114.32E-03
			-202.00		124.34E-03
			-200.00		136.84E-03
			-198.00		154.24E-03
			-196.00		183.38E-03
			-194.00		252.22E-03
			-192.00		410.70E-03
			-190.00		624.66E-03
			-188.00		825.98E-03
			-186.00		957.95E-03
			-184.00		1.0093E+00
			-182.00		1.0318E+00
			-180.00		1.0452E+00
			-178.00		1.0543E+00
			-176.00		1.0608E+00
			-174.00		1.0655E+00
			-172.00		1.0698E+00
			-170.00		1.0734E+00
			-168.00		1.0767E+00
			-166.00		1.0799E+00
			-164.00		1.0821E+00
			-162.00		1.0840E+00
			-160.00		1.0859E+00
			-158.00		1.0872E+00
			-156.00		1.0888E+00
			-154.00		1.0907E+00
			-152.00		1.0924E+00
			-150.00		1.0940E+00
			-148.00		1.0948E+00
			-146.00		1.0953E+00
			-144.00		1.0960E+00
			-142.00		1.0967E+00
			-140.00		1.0976E+00
			-138.00		1.0979E+00
			-136.00		1.0985E+00
			-134.00		1.0995E+00
			-132.00		1.1001E+00
			-130.00		1.1004E+00
			-128.00		1.1004E+00
			-126.00		1.1003E+00
			-124.00		1.1000E+00
			-122.00		1.0997E+00
			-120.00		1.0996E+00
			-118.00		1.1002E+00
			-116.00		1.1006E+00
			-114.00		1.1014E+00
			-112.00		1.1015E+00
			-110.00		1.1005E+00
			-108.00		1.1006E+00
			-106.00		1.1007E+00
			-104.00		1.1004E+00
			-102.00		1.1004E+00
			-100.00		1.1005E+00
			-98.00		1.1004E+00
			-96.00		1.1000E+00
			-94.00		1.0996E+00
			-92.00		1.0995E+00
			-90.00		1.0993E+00
			-88.00		1.0990E+00
			-86.00		1.0990E+00
			-84.00		1.0988E+00
			-82.00		1.0983E+00
			-80.00		1.0970E+00
			-78.00		1.0966E+00
			-76.00		1.0965E+00
			-74.00		1.0968E+00
			-72.00		1.0967E+00
			-70.00		1.0962E+00
			-68.00		1.0963E+00
			-66.00		1.0963E+00
			-64.00		1.0960E+00
			-62.00		1.0952E+00
			-60.00		1.0944E+00
			-58.00		1.0938E+00
			-56.00		1.0937E+00
			-54.00		1.0932E+00
			-52.00		1.0921E+00
			-50.00		1.0915E+00
			-48.00		1.0908E+00
			-46.00		1.0897E+00
			-44.00		1.0883E+00
			-42.00		1.0864E+00
			-40.00		1.0850E+00
			-38.00		1.0842E+00
			-36.00		1.0832E+00
			-34.00		1.0817E+00
			-32.00		1.0805E+00
			-30.00		1.0797E+00
			-28.00		1.0792E+00
			-26.00		1.0789E+00
			-24.00		1.0784E+00
			-22.00		1.0776E+00
			-20.00		1.0773E+00
			-18.00		1.0768E+00
			-16.00		1.0760E+00
			-14.00		1.0747E+00
			-12.00		1.0730E+00
			-10.00		1.0717E+00
			-8.00		1.0708E+00
			-6.00		1.0700E+00
			-4.00		1.0693E+00
			-2.00		1.0689E+00
			0.00		1.0688E+00
			2.00		1.0689E+00
			4.00		1.0693E+00
			6.00		1.0700E+00
			8.00		1.0708E+00
			10.00		1.0717E+00
			12.00		1.0730E+00
			14.00		1.0747E+00
			16.00		1.0760E+00
			18.00		1.0768E+00
			20.00		1.0773E+00
			22.00		1.0776E+00
			24.00		1.0784E+00
			26.00		1.0789E+00
			28.00		1.0792E+00
			30.00		1.0797E+00
			32.00		1.0805E+00
			34.00		1.0817E+00
			36.00		1.0832E+00
			38.00		1.0842E+00
			40.00		1.0850E+00
			42.00		1.0864E+00
			44.00		1.0883E+00
			46.00		1.0897E+00
			48.00		1.0908E+00
			50.00		1.0915E+00
			52.00		1.0921E+00
			54.00		1.0932E+00
			56.00		1.0937E+00
			58.00		1.0938E+00
			60.00		1.0944E+00
			62.00		1.0952E+00
			64.00		1.0960E+00
			66.00		1.0963E+00
			68.00		1.0963E+00
			70.00		1.0962E+00
			72.00		1.0967E+00
			74.00		1.0968E+00
			76.00		1.0965E+00
			78.00		1.0966E+00
			80.00		1.0970E+00
			82.00		1.0983E+00
			84.00		1.0988E+00
			86.00		1.0990E+00
			88.00		1.0990E+00
			90.00		1.0993E+00
			92.00		1.0995E+00
			94.00		1.0996E+00
			96.00		1.1000E+00
			98.00		1.1004E+00
			100.00		1.1005E+00
			102.00		1.1004E+00
			104.00		1.1004E+00
			106.00		1.1007E+00
			108.00		1.1006E+00
			110.00		1.1005E+00
			112.00		1.1015E+00
			114.00		1.1014E+00
			116.00		1.1006E+00
			118.00		1.1002E+00
			120.00		1.0996E+00
			122.00		1.0997E+00
			124.00		1.1000E+00
			126.00		1.1003E+00
			128.00		1.1004E+00
			130.00		1.1004E+00
			132.00		1.1001E+00
			134.00		1.0995E+00
			136.00		1.0985E+00
			138.00		1.0979E+00
			140.00		1.0976E+00
			142.00		1.0967E+00
			144.00		1.0960E+00
			146.00		1.0953E+00
			148.00		1.0948E+00
			150.00		1.0940E+00
			152.00		1.0924E+00
			154.00		1.0907E+00
			156.00		1.0888E+00
			158.00		1.0872E+00
			160.00		1.0859E+00
			162.00		1.0840E+00
			164.00		1.0821E+00
			166.00		1.0799E+00
			168.00		1.0767E+00
			170.00		1.0734E+00
			172.00		1.0698E+00
			174.00		1.0655E+00
			176.00		1.0608E+00
			178.00		1.0543E+00
			180.00		1.0452E+00
			182.00		1.0318E+00
			184.00		1.0093E+00
			186.00		957.95E-03
			188.00		825.98E-03
			190.00		624.66E-03
			192.00		410.70E-03
			194.00		252.22E-03
			196.00		183.38E-03
			198.00		154.24E-03
			200.00		136.84E-03
			202.00		124.34E-03
			204.00		114.32E-03
			206.00		105.65E-03
			208.00		98.891E-03
			210.00		92.591E-03
			212.00		86.562E-03
			214.00		81.555E-03
			216.00		77.106E-03
			218.00		73.122E-03
			220.00		69.420E-03
			222.00		66.363E-03
			224.00		63.318E-03
		END_DATA
	END_SCAN  2
	BEGIN_SCAN  3
		TASK_NAME=tba PDD Profiles
		PROGRAM=WaterTankScans
		COMMENT=5x X
		MEAS_DATE=08-Feb-2021 10:38:06
		LINAC=TRUEBEAMSN4791
		MODALITY=X
		ISOCENTER=1000.00
		INPLANE_AXIS=Y
		CROSSPLANE_AXIS=X
		DEPTH_AXIS=Depth
		INPLANE_AXIS_DIR=TARGET_GUN
		CROSSPLANE_AXIS_DIR=LEFT_RIGHT
		DEPTH_AXIS_DIR=UP_DOWN
		ENERGY=6.00
		NOMINAL_DMAX=15.00
		SSD=900.00
		SCD=450.00
		WEDGE_ANGLE=0.00
		FIELD_INPLANE=400.00
		FIELD_CROSSPLANE=400.00
		FIELD_TYPE=RECTANGULAR
		GANTRY=0.00
		GANTRY_UPRIGHT_POSITION=0
		GANTRY_ROTATION=CW
		COLL_ANGLE=0.00
		COLL_OFFSET_INPLANE=0.00
		COLL_OFFSET_CROSSPLANE=0.00
		SCAN_DEVICE=BeamScan
		SCAN_DEVICE_SETUP=BARA_LEFT_RIGHT
		ELECTROMETER=BeamScan
		RANGE_FIELD=LOW
		RANGE_REFERENCE=MEDIUM
		DETECTOR=THIMBLE_CHAMBER
		DETECTOR_SUBCODE=SEMIFLEX
		DETECTOR_RADIUS=2.40
		DETECTOR_NAME=PTW 31021 Semiflex 3D (1)
		DETECTOR_SN=142316
		DETECTOR_CALIBRATION=588000000.00
		DETECTOR_IS_CALIBRATED=1
		DETECTOR_REFERENCE=THIMBLE_CHAMBER
		DETECTOR_REFERENCE_SUBCODE=SEMIFLEX
		DETECTOR_REFERENCE_RADIUS=2.75
		DETECTOR_REFERENCE_NAME=PTW 31010 Semiflex (1)
		DETECTOR_REFERENCE_SN=—
		DETECTOR_REFERENCE_IS_CALIBRATED=0
		DETECTOR_REFERENCE_CALIBRATION=303000000.00
		DETECTOR_HV=400.0
		DETECTOR_REFERENCE_HV=400.0
		DETECTOR_ORIENTATION=HORIZONTAL
		FILTER=FF
		SCAN_SPEED_PROFILE=12.50
		SCAN_PROF_SPEED_DEP=DEPTH
		SCAN_SPEED_PDD=0.00
		SCAN_PDD_SPEED_DEP=ENERGY
		DETECTOR_TYPE=T31021
		REF_FIELD_DEPTH=300.00
		REF_FIELD_DEFINED=ISOCENTER
		REF_FIELD_INPLANE=100.00
		REF_FIELD_CROSSPLANE=100.00
		REF_SCAN_POSITIONS=-85.00;-84.00;-83.00;-82.00;-81.00;-80.00;-79.00;-78.00;-77.00;-76.00;-75.00;-74.00;-73.00;-72.00;-71.00;-70.00;-69.00;-68.00;-67.00;-66.00;-65.00;-64.00;-63.00;-62.00;-61.00;-60.00;-59.00;-58.00;-57.00;-56.00;-55.00;-54.00;-53.00;-52.00;-51.00;-50.00;-49.00;-48.00;-47.00;-46.00;-45.00;-44.00;-43.00;-42.00;-41.00;-40.00;-39.00;-38.00;-37.00;-36.00;-35.00;-34.00;-33.00;-32.00;-31.00;-30.00;-29.00;-28.00;-27.00;-26.00;-25.00;-24.00;-23.00;-22.00;-21.00;-20.00;-19.00;-18.00;-17.00;-16.00;-15.00;-14.00;-13.00;-12.00;-11.00;-10.00;-9.00;-8.00;-7.00;-6.00;-5.00;-4.00;-3.00;-2.00;-1.00;0.00;1.00;2.00;3.00;4.00;5.00;6.00;7.00;8.00;9.00;10.00;11.00;12.00;13.00;14.00;15.00;16.00;17.00;18.00;19.00;20.00;21.00;22.00;23.00;24.00;25.00;26.00;27.00;28.00;29.00;30.00;31.00;32.00;33.00;34.00;35.00;36.00;37.00;38.00;39.00;40.00;41.00;42.00;43.00;44.00;45.00;46.00;47.00;48.00;49.00;50.00;51.00;52.00;53.00;54.00;55.00;56.00;57.00;58.00;59.00;60.00;61.00;62.00;63.00;64.00;65.00;66.00;67.00;68.00;69.00;70.00;71.00;72.00;73.00;74.00;75.00;76.00;77.00;78.00;79.00;80.00;81.00;82.00;83.00;84.00;85.00;
		REF_OVERSCAN_FACTOR=1.00
		SCAN_CURVETYPE=CROSSPLANE_PROFILE
		SCAN_DEPTH=100.00
		SCAN_OFFAXIS_INPLANE=0.00
		SCAN_OFFAXIS_CROSSPLANE=0.00
		SCAN_ANGLE=0.00
		SCAN_DIAGONAL=NOT_DIAGONAL
		SCAN_DIRECTION=POSITIVE
		MEAS_MEDIUM=WATER
		MEAS_PRESET=MEAS_CONTINUOUS_REFERENCE_SCAN
		MEAS_TIME=0.080
		MEAS_UNIT=A.U.
		INCLINATION_ANGLE=0.00
		PRESSURE=1013.25
		TEMPERATURE=20.00
		NORM_TEMPERATURE=20.00
		CORRECTION_FACTOR=1.0000
		EXPECTED_MAX_DOSE_RATE=3.00
		EPOM_DEPTH_SHIFT=0.2
		EPOM_MODE=SHIFT_PROTOCOL
		CORRECTIONS=SMOOTHED_CORR;CAX_CORR;SYMMETRY_CORR;INTERPOLATED_CORR;MODIFIED_CORR;
		BEGIN_DATA
			-234.00		75.096E-03
			-232.00		78.434E-03
			-230.00		81.771E-03
			-228.00		85.943E-03
			-226.00		90.115E-03
			-224.00		93.453E-03
			-222.00		98.459E-03
			-220.00		103.47E-03
			-218.00		109.31E-03
			-216.00		114.31E-03
			-214.00		121.82E-03
			-212.00		129.33E-03
			-210.00		139.34E-03
			-208.00		151.86E-03
			-206.00		172.72E-03
			-204.00		219.45E-03
			-202.00		322.91E-03
			-200.00		463.93E-03
			-198.00		600.77E-03
			-196.00		690.88E-03
			-194.00		727.60E-03
			-192.00		745.95E-03
			-190.00		757.64E-03
			-188.00		765.14E-03
			-186.00		770.99E-03
			-184.00		776.83E-03
			-182.00		781.00E-03
			-180.00		784.34E-03
			-178.00		788.51E-03
			-176.00		791.85E-03
			-174.00		795.18E-03
			-172.00		798.52E-03
			-170.00		801.86E-03
			-168.00		804.36E-03
			-166.00		807.70E-03
			-164.00		810.20E-03
			-162.00		811.87E-03
			-160.00		813.54E-03
			-158.00		816.04E-03
			-156.00		817.71E-03
			-154.00		819.38E-03
			-152.00		821.05E-03
			-150.00		822.72E-03
			-148.00		825.22E-03
			-146.00		826.06E-03
			-144.00		826.89E-03
			-142.00		828.56E-03
			-140.00		829.39E-03
			-138.00		831.06E-03
			-136.00		831.06E-03
			-134.00		832.73E-03
			-132.00		833.57E-03
			-130.00		834.40E-03
			-128.00		835.23E-03
			-126.00		836.07E-03
			-124.00		836.90E-03
			-122.00		837.74E-03
			-120.00		837.74E-03
			-118.00		839.41E-03
			-116.00		839.41E-03
			-114.00		840.24E-03
			-112.00		841.08E-03
			-110.00		841.08E-03
			-108.00		841.91E-03
			-106.00		842.74E-03
			-104.00		842.74E-03
			-102.00		843.58E-03
			-100.00		843.58E-03
			-98.00		843.58E-03
			-96.00		844.41E-03
			-94.00		844.41E-03
			-92.00		844.41E-03
			-90.00		844.41E-03
			-88.00		845.25E-03
			-86.00		845.25E-03
			-84.00		845.25E-03
			-82.00		846.08E-03
			-80.00		846.92E-03
			-78.00		846.92E-03
			-76.00		846.92E-03
			-74.00		846.92E-03
			-72.00		846.92E-03
			-70.00		846.92E-03
			-68.00		846.08E-03
			-66.00		846.08E-03
			-64.00		846.08E-03
			-62.00		846.92E-03
			-60.00		846.92E-03
			-58.00		846.92E-03
			-56.00		846.92E-03
			-54.00		846.92E-03
			-52.00		846.08E-03
			-50.00		845.25E-03
			-48.00		845.25E-03
			-46.00		845.25E-03
			-44.00		844.41E-03
			-42.00		843.58E-03
			-40.00		842.74E-03
			-38.00		841.91E-03
			-36.00		841.08E-03
			-34.00		840.24E-03
			-32.00		840.24E-03
			-30.00		840.24E-03
			-28.00		840.24E-03
			-26.00		840.24E-03
			-24.00		840.24E-03
			-22.00		839.41E-03
			-20.00		838.57E-03
			-18.00		837.74E-03
			-16.00		837.74E-03
			-14.00		836.90E-03
			-12.00		836.07E-03
			-10.00		836.07E-03
			-8.00		835.23E-03
			-6.00		835.23E-03
			-4.00		835.23E-03
			-2.00		834.40E-03
			0.00		834.40E-03
			2.00		834.40E-03
			4.00		835.23E-03
			6.00		835.23E-03
			8.00		835.23E-03
			10.00		836.07E-03
			12.00		836.07E-03
			14.00		836.90E-03
			16.00		837.74E-03
			18.00		837.74E-03
			20.00		838.57E-03
			22.00		839.41E-03
			24.00		840.24E-03
			26.00		840.24E-03
			28.00		840.24E-03
			30.00		840.24E-03
			32.00		840.24E-03
			34.00		840.24E-03
			36.00		841.08E-03
			38.00		841.91E-03
			40.00		842.74E-03
			42.00		843.58E-03
			44.00		844.41E-03
			46.00		845.25E-03
			48.00		845.25E-03
			50.00		845.25E-03
			52.00		846.08E-03
			54.00		846.92E-03
			56.00		846.92E-03
			58.00		846.92E-03
			60.00		846.92E-03
			62.00		846.92E-03
			64.00		846.08E-03
			66.00		846.08E-03
			68.00		846.08E-03
			70.00		846.92E-03
			72.00		846.92E-03
			74.00		846.92E-03
			76.00		846.92E-03
			78.00		846.92E-03
			80.00		846.92E-03
			82.00		846.08E-03
			84.00		845.25E-03
			86.00		845.25E-03
			88.00		845.25E-03
			90.00		844.41E-03
			92.00		844.41E-03
			94.00		844.41E-03
			96.00		844.41E-03
			98.00		843.58E-03
			100.00		843.58E-03
			102.00		843.58E-03
			104.00		842.74E-03
			106.00		842.74E-03
			108.00		841.91E-03
			110.00		841.08E-03
			112.00		841.08E-03
			114.00		840.24E-03
			116.00		839.41E-03
			118.00		839.41E-03
			120.00		837.74E-03
			122.00		837.74E-03
			124.00		836.90E-03
			126.00		836.07E-03
			128.00		835.23E-03
			130.00		834.40E-03
			132.00		833.57E-03
			134.00		832.73E-03
			136.00		831.06E-03
			138.00		831.06E-03
			140.00		829.39E-03
			142.00		828.56E-03
			144.00		826.89E-03
			146.00		826.06E-03
			148.00		825.22E-03
			150.00		822.72E-03
			152.00		821.05E-03
			154.00		819.38E-03
			156.00		817.71E-03
			158.00		816.04E-03
			160.00		813.54E-03
			162.00		811.87E-03
			164.00		810.20E-03
			166.00		807.70E-03
			168.00		804.36E-03
			170.00		801.86E-03
			172.00		798.52E-03
			174.00		795.18E-03
			176.00		791.85E-03
			178.00		788.51E-03
			180.00		784.34E-03
			182.00		781.00E-03
			184.00		776.83E-03
			186.00		770.99E-03
			188.00		765.14E-03
			190.00		757.64E-03
			192.00		745.95E-03
			194.00		727.60E-03
			196.00		690.88E-03
			198.00		600.77E-03
			200.00		463.93E-03
			202.00		322.91E-03
			204.00		219.45E-03
			206.00		172.72E-03
			208.00		151.86E-03
			210.00		139.34E-03
			212.00		129.33E-03
			214.00		121.82E-03
			216.00		114.31E-03
			218.00		109.31E-03
			220.00		103.47E-03
			222.00		98.459E-03
			224.00		93.453E-03
			226.00		90.115E-03
			228.00		85.943E-03
			230.00		81.771E-03
			232.00		78.434E-03
			234.00		75.096E-03
		END_DATA
	END_SCAN  3
	BEGIN_SCAN  4
		TASK_NAME=tba PDD Profiles
		PROGRAM=WaterTankScans
		COMMENT=5x X
		MEAS_DATE=08-Feb-2021 10:38:40
		LINAC=TRUEBEAMSN4791
		MODALITY=X
		ISOCENTER=1000.00
		INPLANE_AXIS=Y
		CROSSPLANE_AXIS=X
		DEPTH_AXIS=Depth
		INPLANE_AXIS_DIR=TARGET_GUN
		CROSSPLANE_AXIS_DIR=LEFT_RIGHT
		DEPTH_AXIS_DIR=UP_DOWN
		ENERGY=6.00
		NOMINAL_DMAX=15.00
		SSD=900.00
		SCD=450.00
		WEDGE_ANGLE=0.00
		FIELD_INPLANE=400.00
		FIELD_CROSSPLANE=400.00
		FIELD_TYPE=RECTANGULAR
		GANTRY=0.00
		GANTRY_UPRIGHT_POSITION=0
		GANTRY_ROTATION=CW
		COLL_ANGLE=0.00
		COLL_OFFSET_INPLANE=0.00
		COLL_OFFSET_CROSSPLANE=0.00
		SCAN_DEVICE=BeamScan
		SCAN_DEVICE_SETUP=BARA_LEFT_RIGHT
		ELECTROMETER=BeamScan
		RANGE_FIELD=LOW
		RANGE_REFERENCE=MEDIUM
		DETECTOR=THIMBLE_CHAMBER
		DETECTOR_SUBCODE=SEMIFLEX
		DETECTOR_RADIUS=2.40
		DETECTOR_NAME=PTW 31021 Semiflex 3D (1)
		DETECTOR_SN=142316
		DETECTOR_CALIBRATION=588000000.00
		DETECTOR_IS_CALIBRATED=1
		DETECTOR_REFERENCE=THIMBLE_CHAMBER
		DETECTOR_REFERENCE_SUBCODE=SEMIFLEX
		DETECTOR_REFERENCE_RADIUS=2.75
		DETECTOR_REFERENCE_NAME=PTW 31010 Semiflex (1)
		DETECTOR_REFERENCE_SN=—
		DETECTOR_REFERENCE_IS_CALIBRATED=0
		DETECTOR_REFERENCE_CALIBRATION=303000000.00
		DETECTOR_HV=400.0
		DETECTOR_REFERENCE_HV=400.0
		DETECTOR_ORIENTATION=HORIZONTAL
		FILTER=FF
		SCAN_SPEED_PROFILE=10.00
		SCAN_PROF_SPEED_DEP=DEPTH
		SCAN_SPEED_PDD=0.00
		SCAN_PDD_SPEED_DEP=ENERGY
		DETECTOR_TYPE=T31021
		REF_FIELD_DEPTH=300.00
		REF_FIELD_DEFINED=ISOCENTER
		REF_FIELD_INPLANE=100.00
		REF_FIELD_CROSSPLANE=100.00
		REF_SCAN_POSITIONS=-85.00;-84.00;-83.00;-82.00;-81.00;-80.00;-79.00;-78.00;-77.00;-76.00;-75.00;-74.00;-73.00;-72.00;-71.00;-70.00;-69.00;-68.00;-67.00;-66.00;-65.00;-64.00;-63.00;-62.00;-61.00;-60.00;-59.00;-58.00;-57.00;-56.00;-55.00;-54.00;-53.00;-52.00;-51.00;-50.00;-49.00;-48.00;-47.00;-46.00;-45.00;-44.00;-43.00;-42.00;-41.00;-40.00;-39.00;-38.00;-37.00;-36.00;-35.00;-34.00;-33.00;-32.00;-31.00;-30.00;-29.00;-28.00;-27.00;-26.00;-25.00;-24.00;-23.00;-22.00;-21.00;-20.00;-19.00;-18.00;-17.00;-16.00;-15.00;-14.00;-13.00;-12.00;-11.00;-10.00;-9.00;-8.00;-7.00;-6.00;-5.00;-4.00;-3.00;-2.00;-1.00;0.00;1.00;2.00;3.00;4.00;5.00;6.00;7.00;8.00;9.00;10.00;11.00;12.00;13.00;14.00;15.00;16.00;17.00;18.00;19.00;20.00;21.00;22.00;23.00;24.00;25.00;26.00;27.00;28.00;29.00;30.00;31.00;32.00;33.00;34.00;35.00;36.00;37.00;38.00;39.00;40.00;41.00;42.00;43.00;44.00;45.00;46.00;47.00;48.00;49.00;50.00;51.00;52.00;53.00;54.00;55.00;56.00;57.00;58.00;59.00;60.00;61.00;62.00;63.00;64.00;65.00;66.00;67.00;68.00;69.00;70.00;71.00;72.00;73.00;74.00;75.00;76.00;77.00;78.00;79.00;80.00;81.00;82.00;83.00;84.00;85.00;
		REF_OVERSCAN_FACTOR=1.00
		SCAN_CURVETYPE=CROSSPLANE_PROFILE
		SCAN_DEPTH=200.00
		SCAN_OFFAXIS_INPLANE=0.00
		SCAN_OFFAXIS_CROSSPLANE=0.00
		SCAN_ANGLE=0.00
		SCAN_DIAGONAL=NOT_DIAGONAL
		SCAN_DIRECTION=NEGATIVE
		MEAS_MEDIUM=WATER
		MEAS_PRESET=MEAS_CONTINUOUS_REFERENCE_SCAN
		MEAS_TIME=0.100
		MEAS_UNIT=A.U.
		INCLINATION_ANGLE=0.00
		PRESSURE=1013.25
		TEMPERATURE=20.00
		NORM_TEMPERATURE=20.00
		CORRECTION_FACTOR=1.0000
		EXPECTED_MAX_DOSE_RATE=3.00
		EPOM_DEPTH_SHIFT=0.2
		EPOM_MODE=SHIFT_PROTOCOL
		CORRECTIONS=SMOOTHED_CORR;CAX_CORR;SYMMETRY_CORR;INTERPOLATED_CORR;
		BEGIN_DATA
			-258.00		62.293E-03
			-256.00		64.292E-03
			-254.00		66.290E-03
			-252.00		68.602E-03
			-250.00		71.081E-03
			-248.00		73.460E-03
			-246.00		75.834E-03
			-244.00		78.817E-03
			-242.00		81.407E-03
			-240.00		84.453E-03
			-238.00		87.569E-03
			-236.00		90.997E-03
			-234.00		94.565E-03
			-232.00		98.815E-03
			-230.00		103.74E-03
			-228.00		110.50E-03
			-226.00		120.87E-03
			-224.00		143.37E-03
			-222.00		189.53E-03
			-220.00		253.77E-03
			-218.00		317.87E-03
			-216.00		361.73E-03
			-214.00		382.30E-03
			-212.00		392.37E-03
			-210.00		398.64E-03
			-208.00		403.72E-03
			-206.00		408.09E-03
			-204.00		411.50E-03
			-202.00		414.50E-03
			-200.00		417.57E-03
			-198.00		420.57E-03
			-196.00		423.10E-03
			-194.00		425.52E-03
			-192.00		427.84E-03
			-190.00		430.24E-03
			-188.00		432.87E-03
			-186.00		435.17E-03
			-184.00		437.17E-03
			-182.00		439.36E-03
			-180.00		441.31E-03
			-178.00		443.20E-03
			-176.00		445.21E-03
			-174.00		447.07E-03
			-172.00		448.65E-03
			-170.00		450.34E-03
			-168.00		452.10E-03
			-166.00		453.93E-03
			-164.00		455.42E-03
			-162.00		456.60E-03
			-160.00		457.77E-03
			-158.00		459.45E-03
			-156.00		461.16E-03
			-154.00		462.25E-03
			-152.00		463.57E-03
			-150.00		464.81E-03
			-148.00		465.45E-03
			-146.00		466.57E-03
			-144.00		468.14E-03
			-142.00		469.23E-03
			-140.00		470.58E-03
			-138.00		471.69E-03
			-136.00		472.54E-03
			-134.00		473.03E-03
			-132.00		473.85E-03
			-130.00		475.18E-03
			-128.00		476.10E-03
			-126.00		476.68E-03
			-124.00		477.70E-03
			-122.00		478.79E-03
			-120.00		479.40E-03
			-118.00		480.00E-03
			-116.00		480.86E-03
			-114.00		481.46E-03
			-112.00		482.14E-03
			-110.00		482.96E-03
			-108.00		483.90E-03
			-106.00		484.71E-03
			-104.00		485.48E-03
			-102.00		486.11E-03
			-100.00		486.60E-03
			-98.00		487.10E-03
			-96.00		487.46E-03
			-94.00		488.16E-03
