BEGIN_SCAN_DATA
	FORMAT=CC-Export V1.9                  
	FILE_CREATION_DATE=29-Jul-2022 17:04:13
	LAST_MODIFIED=29-Jul-2022 17:04:13
	BEGIN_SCAN  1
		TASK_NAME=tba PDD Profiles
		PROGRAM=WaterTankScans
		COMMENT=PDD + 5x X
		MEAS_DATE=08-Feb-2021 09:54:46
		LINAC=TRUEBEAMSN4791
		MODALITY=X
		ISOCENTER=1000.00
		INPLANE_AXIS=Y
		CROSSPLANE_AXIS=X
		DEPTH_AXIS=Depth
		INPLANE_AXIS_DIR=TARGET_GUN
		CROSSPLANE_AXIS_DIR=LEFT_RIGHT
		DEPTH_AXIS_DIR=UP_DOWN
		ENERGY=6.00
		NOMINAL_DMAX=15.00
		SSD=900.00
		SCD=450.00
		WEDGE_ANGLE=0.00
		FIELD_INPLANE=100.00
		FIELD_CROSSPLANE=100.00
		FIELD_TYPE=RECTANGULAR
		GANTRY=0.00
		GANTRY_UPRIGHT_POSITION=0
		GANTRY_ROTATION=CW
		COLL_ANGLE=0.00
		COLL_OFFSET_INPLANE=0.00
		COLL_OFFSET_CROSSPLANE=0.00
		SCAN_DEVICE=BeamScan
		SCAN_DEVICE_SETUP=BARA_LEFT_RIGHT
		ELECTROMETER=BeamScan
		RANGE_FIELD=LOW
		RANGE_REFERENCE=MEDIUM
		DETECTOR=THIMBLE_CHAMBER
		DETECTOR_SUBCODE=SEMIFLEX
		DETECTOR_RADIUS=2.40
		DETECTOR_NAME=PTW 31021 Semiflex 3D (1)
		DETECTOR_SN=142316
		DETECTOR_CALIBRATION=588000000.00
		DETECTOR_IS_CALIBRATED=1
		DETECTOR_REFERENCE=THIMBLE_CHAMBER
		DETECTOR_REFERENCE_SUBCODE=SEMIFLEX
		DETECTOR_REFERENCE_RADIUS=2.75
		DETECTOR_REFERENCE_NAME=PTW 31010 Semiflex (1)
		DETECTOR_REFERENCE_SN=—
		DETECTOR_REFERENCE_IS_CALIBRATED=0
		DETECTOR_REFERENCE_CALIBRATION=303000000.00
		DETECTOR_HV=400.0
		DETECTOR_REFERENCE_HV=400.0
		DETECTOR_ORIENTATION=HORIZONTAL
		FILTER=FF
		SCAN_SPEED_PROFILE=12.50
		SCAN_PROF_SPEED_DEP=DEPTH
		SCAN_SPEED_PDD=12.50
		SCAN_PDD_SPEED_DEP=ENERGY
		DETECTOR_TYPE=T31021
		REF_FIELD_DEPTH=100.00
		REF_FIELD_DEFINED=ISOCENTER
		REF_FIELD_INPLANE=100.00
		REF_FIELD_CROSSPLANE=100.00
		REF_SCAN_POSITIONS=-85.00;-84.00;-83.00;-82.00;-81.00;-80.00;-79.00;-78.00;-77.00;-76.00;-75.00;-74.00;-73.00;-72.00;-71.00;-70.00;-69.00;-68.00;-67.00;-66.00;-65.00;-64.00;-63.00;-62.00;-61.00;-60.00;-59.00;-58.00;-57.00;-56.00;-55.00;-54.00;-53.00;-52.00;-51.00;-50.00;-49.00;-48.00;-47.00;-46.00;-45.00;-44.00;-43.00;-42.00;-41.00;-40.00;-39.00;-38.00;-37.00;-36.00;-35.00;-34.00;-33.00;-32.00;-31.00;-30.00;-29.00;-28.00;-27.00;-26.00;-25.00;-24.00;-23.00;-22.00;-21.00;-20.00;-19.00;-18.00;-17.00;-16.00;-15.00;-14.00;-13.00;-12.00;-11.00;-10.00;-9.00;-8.00;-7.00;-6.00;-5.00;-4.00;-3.00;-2.00;-1.00;0.00;1.00;2.00;3.00;4.00;5.00;6.00;7.00;8.00;9.00;10.00;11.00;12.00;13.00;14.00;15.00;16.00;17.00;18.00;19.00;20.00;21.00;22.00;23.00;24.00;25.00;26.00;27.00;28.00;29.00;30.00;31.00;32.00;33.00;34.00;35.00;36.00;37.00;38.00;39.00;40.00;41.00;42.00;43.00;44.00;45.00;46.00;47.00;48.00;49.00;50.00;51.00;52.00;53.00;54.00;55.00;56.00;57.00;58.00;59.00;60.00;61.00;62.00;63.00;64.00;65.00;66.00;67.00;68.00;69.00;70.00;71.00;72.00;73.00;74.00;75.00;76.00;77.00;78.00;79.00;80.00;81.00;82.00;83.00;84.00;85.00;
		REF_OVERSCAN_FACTOR=1.00
		SCAN_CURVETYPE=CROSSPLANE_PROFILE
		SCAN_DEPTH=15.00
		SCAN_OFFAXIS_INPLANE=0.00
		SCAN_OFFAXIS_CROSSPLANE=0.00
		SCAN_ANGLE=0.00
		SCAN_DIAGONAL=NOT_DIAGONAL
		SCAN_DIRECTION=POSITIVE
		MEAS_MEDIUM=WATER
		MEAS_PRESET=MEAS_CONTINUOUS_REFERENCE_SCAN
		MEAS_TIME=0.080
		MEAS_UNIT=A.U.
		INCLINATION_ANGLE=0.00
		PRESSURE=1013.25
		TEMPERATURE=20.00
		NORM_TEMPERATURE=20.00
		CORRECTION_FACTOR=1.0000
		EXPECTED_MAX_DOSE_RATE=3.00
		EPOM_DEPTH_SHIFT=0.2
		EPOM_MODE=SHIFT_PROTOCOL
		CORRECTIONS=SMOOTHED_CORR;CAX_CORR;SYMMETRY_CORR;INTERPOLATED_CORR;
		BEGIN_DATA
			-78.00		41.875E-03
			-76.00		44.978E-03
			-74.00		48.091E-03
			-72.00		51.098E-03
			-70.00		54.957E-03
			-68.00		58.803E-03
			-66.00		63.192E-03
			-64.00		69.026E-03
			-62.00		75.279E-03
			-60.00		82.057E-03
			-58.00		90.302E-03
			-56.00		102.24E-03
			-54.00		120.00E-03
			-52.00		152.37E-03
			-50.00		232.92E-03
			-48.00		493.44E-03
			-46.00		1.0139E+00
			-44.00		1.5790E+00
			-42.00		1.9065E+00
			-40.00		2.0141E+00
			-38.00		2.0515E+00
			-36.00		2.0666E+00
			-34.00		2.0770E+00
			-32.00		2.0814E+00
			-30.00		2.0856E+00
			-28.00		2.0876E+00
			-26.00		2.0907E+00
			-24.00		2.0951E+00
			-22.00		2.0968E+00
			-20.00		2.0961E+00
			-18.00		2.0954E+00
			-16.00		2.0947E+00
			-14.00		2.0944E+00
			-12.00		2.0919E+00
			-10.00		2.0897E+00
			-8.00		2.0879E+00
			-6.00		2.0872E+00
			-4.00		2.0857E+00
			-2.00		2.0828E+00
			0.00		2.0825E+00
			2.00		2.0828E+00
			4.00		2.0857E+00
			6.00		2.0872E+00
			8.00		2.0879E+00
			10.00		2.0897E+00
			12.00		2.0919E+00
			14.00		2.0944E+00
			16.00		2.0947E+00
			18.00		2.0954E+00
			20.00		2.0961E+00
			22.00		2.0968E+00
			24.00		2.0951E+00
			26.00		2.0907E+00
			28.00		2.0876E+00
			30.00		2.0856E+00
			32.00		2.0814E+00
			34.00		2.0770E+00
			36.00		2.0666E+00
			38.00		2.0515E+00
			40.00		2.0141E+00
			42.00		1.9065E+00
			44.00		1.5790E+00
			46.00		1.0139E+00
			48.00		493.44E-03
			50.00		232.92E-03
			52.00		152.37E-03
			54.00		120.00E-03
			56.00		102.24E-03
			58.00		90.302E-03
			60.00		82.057E-03
			62.00		75.279E-03
			64.00		69.026E-03
			66.00		63.192E-03
			68.00		58.803E-03
			70.00		54.957E-03
			72.00		51.098E-03
			74.00		48.091E-03
			76.00		44.978E-03
			78.00		41.875E-03
		END_DATA
	END_SCAN  1
	BEGIN_SCAN  2
		TASK_NAME=tba PDD Profiles
		PROGRAM=WaterTankScans
		COMMENT=PDD + 5x X
		MEAS_DATE=08-Feb-2021 09:55:04
		LINAC=TRUEBEAMSN4791
		MODALITY=X
		ISOCENTER=1000.00
		INPLANE_AXIS=Y
		CROSSPLANE_AXIS=X
		DEPTH_AXIS=Depth
		INPLANE_AXIS_DIR=TARGET_GUN
		CROSSPLANE_AXIS_DIR=LEFT_RIGHT
		DEPTH_AXIS_DIR=UP_DOWN
		ENERGY=6.00
		NOMINAL_DMAX=15.00
		SSD=900.00
		SCD=450.00
		WEDGE_ANGLE=0.00
		FIELD_INPLANE=100.00
		FIELD_CROSSPLANE=100.00
		FIELD_TYPE=RECTANGULAR
		GANTRY=0.00
		GANTRY_UPRIGHT_POSITION=0
		GANTRY_ROTATION=CW
		COLL_ANGLE=0.00
		COLL_OFFSET_INPLANE=0.00
		COLL_OFFSET_CROSSPLANE=0.00
		SCAN_DEVICE=BeamScan
		SCAN_DEVICE_SETUP=BARA_LEFT_RIGHT
		ELECTROMETER=BeamScan
		RANGE_FIELD=LOW
		RANGE_REFERENCE=MEDIUM
		DETECTOR=THIMBLE_CHAMBER
		DETECTOR_SUBCODE=SEMIFLEX
		DETECTOR_RADIUS=2.40
		DETECTOR_NAME=PTW 31021 Semiflex 3D (1)
		DETECTOR_SN=142316
		DETECTOR_CALIBRATION=588000000.00
		DETECTOR_IS_CALIBRATED=1
		DETECTOR_REFERENCE=THIMBLE_CHAMBER
		DETECTOR_REFERENCE_SUBCODE=SEMIFLEX
		DETECTOR_REFERENCE_RADIUS=2.75
		DETECTOR_REFERENCE_NAME=PTW 31010 Semiflex (1)
		DETECTOR_REFERENCE_SN=—
		DETECTOR_REFERENCE_IS_CALIBRATED=0
		DETECTOR_REFERENCE_CALIBRATION=303000000.00
		DETECTOR_HV=400.0
		DETECTOR_REFERENCE_HV=400.0
		DETECTOR_ORIENTATION=HORIZONTAL
		FILTER=FF
		SCAN_SPEED_PROFILE=12.50
		SCAN_PROF_SPEED_DEP=DEPTH
		SCAN_SPEED_PDD=12.50
		SCAN_PDD_SPEED_DEP=ENERGY
		DETECTOR_TYPE=T31021
		REF_FIELD_DEPTH=100.00
		REF_FIELD_DEFINED=ISOCENTER
		REF_FIELD_INPLANE=100.00
		REF_FIELD_CROSSPLANE=100.00
		REF_SCAN_POSITIONS=-85.00;-84.00;-83.00;-82.00;-81.00;-80.00;-79.00;-78.00;-77.00;-76.00;-75.00;-74.00;-73.00;-72.00;-71.00;-70.00;-69.00;-68.00;-67.00;-66.00;-65.00;-64.00;-63.00;-62.00;-61.00;-60.00;-59.00;-58.00;-57.00;-56.00;-55.00;-54.00;-53.00;-52.00;-51.00;-50.00;-49.00;-48.00;-47.00;-46.00;-45.00;-44.00;-43.00;-42.00;-41.00;-40.00;-39.00;-38.00;-37.00;-36.00;-35.00;-34.00;-33.00;-32.00;-31.00;-30.00;-29.00;-28.00;-27.00;-26.00;-25.00;-24.00;-23.00;-22.00;-21.00;-20.00;-19.00;-18.00;-17.00;-16.00;-15.00;-14.00;-13.00;-12.00;-11.00;-10.00;-9.00;-8.00;-7.00;-6.00;-5.00;-4.00;-3.00;-2.00;-1.00;0.00;1.00;2.00;3.00;4.00;5.00;6.00;7.00;8.00;9.00;10.00;11.00;12.00;13.00;14.00;15.00;16.00;17.00;18.00;19.00;20.00;21.00;22.00;23.00;24.00;25.00;26.00;27.00;28.00;29.00;30.00;31.00;32.00;33.00;34.00;35.00;36.00;37.00;38.00;39.00;40.00;41.00;42.00;43.00;44.00;45.00;46.00;47.00;48.00;49.00;50.00;51.00;52.00;53.00;54.00;55.00;56.00;57.00;58.00;59.00;60.00;61.00;62.00;63.00;64.00;65.00;66.00;67.00;68.00;69.00;70.00;71.00;72.00;73.00;74.00;75.00;76.00;77.00;78.00;79.00;80.00;81.00;82.00;83.00;84.00;85.00;
		REF_OVERSCAN_FACTOR=1.00
		SCAN_CURVETYPE=CROSSPLANE_PROFILE
		SCAN_DEPTH=50.00
		SCAN_OFFAXIS_INPLANE=0.00
		SCAN_OFFAXIS_CROSSPLANE=0.00
		SCAN_ANGLE=0.00
		SCAN_DIAGONAL=NOT_DIAGONAL
		SCAN_DIRECTION=NEGATIVE
		MEAS_MEDIUM=WATER
		MEAS_PRESET=MEAS_CONTINUOUS_REFERENCE_SCAN
		MEAS_TIME=0.080
		MEAS_UNIT=A.U.
		INCLINATION_ANGLE=0.00
		PRESSURE=1013.25
		TEMPERATURE=20.00
		NORM_TEMPERATURE=20.00
		CORRECTION_FACTOR=1.0000
		EXPECTED_MAX_DOSE_RATE=3.00
		EPOM_DEPTH_SHIFT=0.2
		EPOM_MODE=SHIFT_PROTOCOL
		CORRECTIONS=SMOOTHED_CORR;CAX_CORR;SYMMETRY_CORR;INTERPOLATED_CORR;
		BEGIN_DATA
			-80.00		49.934E-03
			-78.00		53.704E-03
			-76.00		57.087E-03
			-74.00		61.241E-03
			-72.00		65.496E-03
			-70.00		70.078E-03
			-68.00		76.061E-03
			-66.00		82.769E-03
			-64.00		90.666E-03
			-62.00		99.528E-03
			-60.00		109.11E-03
			-58.00		121.69E-03
			-56.00		140.20E-03
			-54.00		170.51E-03
			-52.00		234.25E-03
			-50.00		420.50E-03
			-48.00		809.77E-03
			-46.00		1.2622E+00
			-44.00		1.5573E+00
			-42.00		1.6630E+00
			-40.00		1.7069E+00
			-38.00		1.7273E+00
			-36.00		1.7399E+00
			-34.00		1.7487E+00
			-32.00		1.7553E+00
			-30.00		1.7601E+00
			-28.00		1.7668E+00
			-26.00		1.7706E+00
			-24.00		1.7749E+00
			-22.00		1.7782E+00
			-20.00		1.7783E+00
			-18.00		1.7783E+00
			-16.00		1.7808E+00
			-14.00		1.7817E+00
			-12.00		1.7805E+00
			-10.00		1.7773E+00
			-8.00		1.7769E+00
			-6.00		1.7753E+00
			-4.00		1.7742E+00
			-2.00		1.7741E+00
			0.00		1.7762E+00
			2.00		1.7741E+00
			4.00		1.7742E+00
			6.00		1.7753E+00
			8.00		1.7769E+00
			10.00		1.7773E+00
			12.00		1.7805E+00
			14.00		1.7817E+00
			16.00		1.7808E+00
			18.00		1.7783E+00
			20.00		1.7783E+00
			22.00		1.7782E+00
			24.00		1.7749E+00
			26.00		1.7706E+00
			28.00		1.7668E+00
			30.00		1.7601E+00
			32.00		1.7553E+00
			34.00		1.7487E+00
			36.00		1.7399E+00
			38.00		1.7273E+00
			40.00		1.7069E+00
			42.00		1.6630E+00
			44.00		1.5573E+00
			46.00		1.2622E+00
			48.00		809.77E-03
			50.00		420.50E-03
			52.00		234.25E-03
			54.00		170.51E-03
			56.00		140.20E-03
			58.00		121.69E-03
			60.00		109.11E-03
			62.00		99.528E-03
			64.00		90.666E-03
			66.00		82.769E-03
			68.00		76.061E-03
			70.00		70.078E-03
			72.00		65.496E-03
			74.00		61.241E-03
			76.00		57.087E-03
			78.00		53.704E-03
			80.00		49.934E-03
		END_DATA
	END_SCAN  2
	BEGIN_SCAN  3
		TASK_NAME=tba PDD Profiles
		PROGRAM=WaterTankScans
		COMMENT=PDD + 5x X
		MEAS_DATE=08-Feb-2021 09:55:20
		LINAC=TRUEBEAMSN4791
		MODALITY=X
		ISOCENTER=1000.00
		INPLANE_AXIS=Y
		CROSSPLANE_AXIS=X
		DEPTH_AXIS=Depth
		INPLANE_AXIS_DIR=TARGET_GUN
		CROSSPLANE_AXIS_DIR=LEFT_RIGHT
		DEPTH_AXIS_DIR=UP_DOWN
		ENERGY=6.00
		NOMINAL_DMAX=15.00
		SSD=900.00
		SCD=450.00
		WEDGE_ANGLE=0.00
		FIELD_INPLANE=100.00
		FIELD_CROSSPLANE=100.00
		FIELD_TYPE=RECTANGULAR
		GANTRY=0.00
		GANTRY_UPRIGHT_POSITION=0
		GANTRY_ROTATION=CW
		COLL_ANGLE=0.00
		COLL_OFFSET_INPLANE=0.00
		COLL_OFFSET_CROSSPLANE=0.00
		SCAN_DEVICE=BeamScan
		SCAN_DEVICE_SETUP=BARA_LEFT_RIGHT
		ELECTROMETER=BeamScan
		RANGE_FIELD=LOW
		RANGE_REFERENCE=MEDIUM
		DETECTOR=THIMBLE_CHAMBER
		DETECTOR_SUBCODE=SEMIFLEX
		DETECTOR_RADIUS=2.40
		DETECTOR_NAME=PTW 31021 Semiflex 3D (1)
		DETECTOR_SN=142316
		DETECTOR_CALIBRATION=588000000.00
		DETECTOR_IS_CALIBRATED=1
		DETECTOR_REFERENCE=THIMBLE_CHAMBER
		DETECTOR_REFERENCE_SUBCODE=SEMIFLEX
		DETECTOR_REFERENCE_RADIUS=2.75
		DETECTOR_REFERENCE_NAME=PTW 31010 Semiflex (1)
		DETECTOR_REFERENCE_SN=—
		DETECTOR_REFERENCE_IS_CALIBRATED=0
		DETECTOR_REFERENCE_CALIBRATION=303000000.00
		DETECTOR_HV=400.0
		DETECTOR_REFERENCE_HV=400.0
		DETECTOR_ORIENTATION=HORIZONTAL
		FILTER=FF
		SCAN_SPEED_PROFILE=12.50
		SCAN_PROF_SPEED_DEP=DEPTH
		SCAN_SPEED_PDD=12.50
		SCAN_PDD_SPEED_DEP=ENERGY
		DETECTOR_TYPE=T31021
		REF_FIELD_DEPTH=100.00
		REF_FIELD_DEFINED=ISOCENTER
		REF_FIELD_INPLANE=100.00
		REF_FIELD_CROSSPLANE=100.00
		REF_SCAN_POSITIONS=-85.00;-84.00;-83.00;-82.00;-81.00;-80.00;-79.00;-78.00;-77.00;-76.00;-75.00;-74.00;-73.00;-72.00;-71.00;-70.00;-69.00;-68.00;-67.00;-66.00;-65.00;-64.00;-63.00;-62.00;-61.00;-60.00;-59.00;-58.00;-57.00;-56.00;-55.00;-54.00;-53.00;-52.00;-51.00;-50.00;-49.00;-48.00;-47.00;-46.00;-45.00;-44.00;-43.00;-42.00;-41.00;-40.00;-39.00;-38.00;-37.00;-36.00;-35.00;-34.00;-33.00;-32.00;-31.00;-30.00;-29.00;-28.00;-27.00;-26.00;-25.00;-24.00;-23.00;-22.00;-21.00;-20.00;-19.00;-18.00;-17.00;-16.00;-15.00;-14.00;-13.00;-12.00;-11.00;-10.00;-9.00;-8.00;-7.00;-6.00;-5.00;-4.00;-3.00;-2.00;-1.00;0.00;1.00;2.00;3.00;4.00;5.00;6.00;7.00;8.00;9.00;10.00;11.00;12.00;13.00;14.00;15.00;16.00;17.00;18.00;19.00;20.00;21.00;22.00;23.00;24.00;25.00;26.00;27.00;28.00;29.00;30.00;31.00;32.00;33.00;34.00;35.00;36.00;37.00;38.00;39.00;40.00;41.00;42.00;43.00;44.00;45.00;46.00;47.00;48.00;49.00;50.00;51.00;52.00;53.00;54.00;55.00;56.00;57.00;58.00;59.00;60.00;61.00;62.00;63.00;64.00;65.00;66.00;67.00;68.00;69.00;70.00;71.00;72.00;73.00;74.00;75.00;76.00;77.00;78.00;79.00;80.00;81.00;82.00;83.00;84.00;85.00;
		REF_OVERSCAN_FACTOR=1.00
		SCAN_CURVETYPE=CROSSPLANE_PROFILE
		SCAN_DEPTH=100.00
		SCAN_OFFAXIS_INPLANE=0.00
		SCAN_OFFAXIS_CROSSPLANE=0.00
		SCAN_ANGLE=0.00
		SCAN_DIAGONAL=NOT_DIAGONAL
		SCAN_DIRECTION=POSITIVE
		MEAS_MEDIUM=WATER
		MEAS_PRESET=MEAS_CONTINUOUS_REFERENCE_SCAN
		MEAS_TIME=0.080
		MEAS_UNIT=A.U.
		INCLINATION_ANGLE=0.00
		PRESSURE=1013.25
		TEMPERATURE=20.00
		NORM_TEMPERATURE=20.00
		CORRECTION_FACTOR=1.0000
		EXPECTED_MAX_DOSE_RATE=3.00
		EPOM_DEPTH_SHIFT=0.2
		EPOM_MODE=SHIFT_PROTOCOL
		CORRECTIONS=SMOOTHED_CORR;CAX_CORR;SYMMETRY_CORR;INTERPOLATED_CORR;
		BEGIN_DATA
			-84.00		57.101E-03
			-82.00		60.297E-03
			-80.00		64.122E-03
			-78.00		68.281E-03
			-76.00		72.510E-03
			-74.00		77.798E-03
			-72.00		83.551E-03
			-70.00		89.261E-03
			-68.00		96.013E-03
			-66.00		103.88E-03
			-64.00		111.81E-03
			-62.00		121.97E-03
			-60.00		133.72E-03
			-58.00		151.04E-03
			-56.00		180.03E-03
			-54.00		243.22E-03
			-52.00		411.75E-03
			-50.00		705.78E-03
			-48.00		1.0047E+00
			-46.00		1.1825E+00
			-44.00		1.2463E+00
			-42.00		1.2698E+00
			-40.00		1.2864E+00
			-38.00		1.2992E+00
			-36.00		1.3080E+00
			-34.00		1.3133E+00
			-32.00		1.3189E+00
			-30.00		1.3238E+00
			-28.00		1.3307E+00
			-26.00		1.3348E+00
			-24.00		1.3387E+00
			-22.00		1.3425E+00
			-20.00		1.3445E+00
			-18.00		1.3451E+00
			-16.00		1.3463E+00
			-14.00		1.3486E+00
			-12.00		1.3492E+00
			-10.00		1.3473E+00
			-8.00		1.3475E+00
			-6.00		1.3482E+00
			-4.00		1.3486E+00
			-2.00		1.3472E+00
			0.00		1.3465E+00
			2.00		1.3472E+00
			4.00		1.3486E+00
			6.00		1.3482E+00
			8.00		1.3475E+00
			10.00		1.3473E+00
			12.00		1.3492E+00
			14.00		1.3486E+00
			16.00		1.3463E+00
			18.00		1.3451E+00
			20.00		1.3445E+00
			22.00		1.3425E+00
			24.00		1.3387E+00
			26.00		1.3348E+00
			28.00		1.3307E+00
			30.00		1.3238E+00
			32.00		1.3189E+00
			34.00		1.3133E+00
			36.00		1.3080E+00
			38.00		1.2992E+00
			40.00		1.2864E+00
			42.00		1.2698E+00
			44.00		1.2463E+00
			46.00		1.1825E+00
			48.00		1.0047E+00
			50.00		705.78E-03
			52.00		411.75E-03
			54.00		243.22E-03
			56.00		180.03E-03
			58.00		151.04E-03
			60.00		133.72E-03
			62.00		121.97E-03
			64.00		111.81E-03
			66.00		103.88E-03
			68.00		96.013E-03
			70.00		89.261E-03
			72.00		83.551E-03
			74.00		77.798E-03
			76.00		72.510E-03
			78.00		68.281E-03
			80.00		64.122E-03
			82.00		60.297E-03
			84.00		57.101E-03
		END_DATA
	END_SCAN  3
	BEGIN_SCAN  4
		TASK_NAME=tba PDD Profiles
		PROGRAM=WaterTankScans
		COMMENT=PDD + 5x X
		MEAS_DATE=08-Feb-2021 09:55:37
		LINAC=TRUEBEAMSN4791
		MODALITY=X
		ISOCENTER=1000.00
		INPLANE_AXIS=Y
		CROSSPLANE_AXIS=X
		DEPTH_AXIS=Depth
		INPLANE_AXIS_DIR=TARGET_GUN
		CROSSPLANE_AXIS_DIR=LEFT_RIGHT
		DEPTH_AXIS_DIR=UP_DOWN
		ENERGY=6.00
		NOMINAL_DMAX=15.00
		SSD=900.00
		SCD=450.00
		WEDGE_ANGLE=0.00
		FIELD_INPLANE=100.00
		FIELD_CROSSPLANE=100.00
		FIELD_TYPE=RECTANGULAR
		GANTRY=0.00
		GANTRY_UPRIGHT_POSITION=0
		GANTRY_ROTATION=CW
		COLL_ANGLE=0.00
		COLL_OFFSET_INPLANE=0.00
		COLL_OFFSET_CROSSPLANE=0.00
		SCAN_DEVICE=BeamScan
		SCAN_DEVICE_SETUP=BARA_LEFT_RIGHT
		ELECTROMETER=BeamScan
		RANGE_FIELD=LOW
		RANGE_REFERENCE=MEDIUM
		DETECTOR=THIMBLE_CHAMBER
		DETECTOR_SUBCODE=SEMIFLEX
		DETECTOR_RADIUS=2.40
		DETECTOR_NAME=PTW 31021 Semiflex 3D (1)
		DETECTOR_SN=142316
		DETECTOR_CALIBRATION=588000000.00
		DETECTOR_IS_CALIBRATED=1
		DETECTOR_REFERENCE=THIMBLE_CHAMBER
		DETECTOR_REFERENCE_SUBCODE=SEMIFLEX
		DETECTOR_REFERENCE_RADIUS=2.75
		DETECTOR_REFERENCE_NAME=PTW 31010 Semiflex (1)
		DETECTOR_REFERENCE_SN=—
		DETECTOR_REFERENCE_IS_CALIBRATED=0
		DETECTOR_REFERENCE_CALIBRATION=303000000.00
		DETECTOR_HV=400.0
		DETECTOR_REFERENCE_HV=400.0
		DETECTOR_ORIENTATION=HORIZONTAL
		FILTER=FF
		SCAN_SPEED_PROFILE=10.00
		SCAN_PROF_SPEED_DEP=DEPTH
		SCAN_SPEED_PDD=12.50
		SCAN_PDD_SPEED_DEP=ENERGY
		DETECTOR_TYPE=T31021
		REF_FIELD_DEPTH=100.00
		REF_FIELD_DEFINED=ISOCENTER
		REF_FIELD_INPLANE=100.00
		REF_FIELD_CROSSPLANE=100.00
		REF_SCAN_POSITIONS=-85.00;-84.00;-83.00;-82.00;-81.00;-80.00;-79.00;-78.00;-77.00;-76.00;-75.00;-74.00;-73.00;-72.00;-71.00;-70.00;-69.00;-68.00;-67.00;-66.00;-65.00;-64.00;-63.00;-62.00;-61.00;-60.00;-59.00;-58.00;-57.00;-56.00;-55.00;-54.00;-53.00;-52.00;-51.00;-50.00;-49.00;-48.00;-47.00;-46.00;-45.00;-44.00;-43.00;-42.00;-41.00;-40.00;-39.00;-38.00;-37.00;-36.00;-35.00;-34.00;-33.00;-32.00;-31.00;-30.00;-29.00;-28.00;-27.00;-26.00;-25.00;-24.00;-23.00;-22.00;-21.00;-20.00;-19.00;-18.00;-17.00;-16.00;-15.00;-14.00;-13.00;-12.00;-11.00;-10.00;-9.00;-8.00;-7.00;-6.00;-5.00;-4.00;-3.00;-2.00;-1.00;0.00;1.00;2.00;3.00;4.00;5.00;6.00;7.00;8.00;9.00;10.00;11.00;12.00;13.00;14.00;15.00;16.00;17.00;18.00;19.00;20.00;21.00;22.00;23.00;24.00;25.00;26.00;27.00;28.00;29.00;30.00;31.00;32.00;33.00;34.00;35.00;36.00;37.00;38.00;39.00;40.00;41.00;42.00;43.00;44.00;45.00;46.00;47.00;48.00;49.00;50.00;51.00;52.00;53.00;54.00;55.00;56.00;57.00;58.00;59.00;60.00;61.00;62.00;63.00;64.00;65.00;66.00;67.00;68.00;69.00;70.00;71.00;72.00;73.00;74.00;75.00;76.00;77.00;78.00;79.00;80.00;81.00;82.00;83.00;84.00;85.00;
		REF_OVERSCAN_FACTOR=1.00
		SCAN_CURVETYPE=CROSSPLANE_PROFILE
		SCAN_DEPTH=200.00
		SCAN_OFFAXIS_INPLANE=0.00
		SCAN_OFFAXIS_CROSSPLANE=0.00
		SCAN_ANGLE=0.00
		SCAN_DIAGONAL=NOT_DIAGONAL
		SCAN_DIRECTION=NEGATIVE
		MEAS_MEDIUM=WATER
		MEAS_PRESET=MEAS_CONTINUOUS_REFERENCE_SCAN
		MEAS_TIME=0.100
		MEAS_UNIT=A.U.
		INCLINATION_ANGLE=0.00
		PRESSURE=1013.25
		TEMPERATURE=20.00
		NORM_TEMPERATURE=20.00
		CORRECTION_FACTOR=1.0000
		EXPECTED_MAX_DOSE_RATE=3.00
		EPOM_DEPTH_SHIFT=0.2
		EPOM_MODE=SHIFT_PROTOCOL
		CORRECTIONS=SMOOTHED_CORR;CAX_CORR;SYMMETRY_CORR;INTERPOLATED_CORR;
		BEGIN_DATA
			-94.00		48.352E-03
			-92.00		49.893E-03
			-90.00		52.286E-03
			-88.00		55.350E-03
			-86.00		57.637E-03
			-84.00		61.329E-03
			-82.00		63.790E-03
			-80.00		67.849E-03
			-78.00		71.126E-03
			-76.00		74.781E-03
			-74.00		79.385E-03
			-72.00		83.686E-03
			-70.00		88.741E-03
			-68.00		94.204E-03
			-66.00		100.80E-03
			-64.00		109.32E-03
			-62.00		122.57E-03
			-60.00		146.70E-03
			-58.00		203.26E-03
			-56.00		324.23E-03
			-54.00		481.25E-03
			-52.00		604.85E-03
			-50.00		666.44E-03
			-48.00		689.81E-03
			-46.00		703.32E-03
			-44.00		711.37E-03
			-42.00		718.01E-03
			-40.00		722.93E-03
			-38.00		727.30E-03
			-36.00		730.80E-03
			-34.00		734.44E-03
			-32.00		737.63E-03
			-30.00		741.52E-03
			-28.00		744.32E-03
			-26.00		746.08E-03
			-24.00		748.25E-03
			-22.00		750.06E-03
			-20.00		752.03E-03
			-18.00		753.67E-03
			-16.00		754.03E-03
			-14.00		755.65E-03
			-12.00		756.56E-03
			-10.00		756.70E-03
			-8.00		756.92E-03
			-6.00		756.91E-03
			-4.00		756.80E-03
			-2.00		757.16E-03
			0.00		757.71E-03
			2.00		757.16E-03
			4.00		756.80E-03
			6.00		756.91E-03
			8.00		756.92E-03
			10.00		756.70E-03
			12.00		756.56E-03
			14.00		755.65E-03
			16.00		754.03E-03
			18.00		753.67E-03
			20.00		752.03E-03
			22.00		750.06E-03
			24.00		748.25E-03
			26.00		746.08E-03
			28.00		744.32E-03
			30.00		741.52E-03
			32.00		737.63E-03
			34.00		734.44E-03
			36.00		730.80E-03
			38.00		727.30E-03
			40.00		722.93E-03
			42.00		718.01E-03
			44.00		711.37E-03
			46.00		703.32E-03
			48.00		689.81E-03
			50.00		666.44E-03
			52.00		604.85E-03
			54.00		481.25E-03
			56.00		324.23E-03
			58.00		203.26E-03
			60.00		146.70E-03
			62.00		122.57E-03
			64.00		109.32E-03
			66.00		100.80E-03
			68.00		94.204E-03
			70.00		88.741E-03
			72.00		83.686E-03
			74.00		79.385E-03
			76.00		74.781E-03
			78.00		71.126E-03
			80.00		67.849E-03
			82.00		63.790E-03
			84.00		61.329E-03
			86.00		57.637E-03
			88.00		55.350E-03
			90.00		52.286E-03
			92.00		49.893E-03
			94.00		48.352E-03
		END_DATA
	END_SCAN  4
	BEGIN_SCAN  5
		TASK_NAME=tba PDD Profiles
		PROGRAM=WaterTankScans
		COMMENT=PDD + 5x X
		MEAS_DATE=08-Feb-2021 09:56:02
		LINAC=TRUEBEAMSN4791
		MODALITY=X
		ISOCENTER=1000.00
		INPLANE_AXIS=Y
		CROSSPLANE_AXIS=X
		DEPTH_AXIS=Depth
		INPLANE_AXIS_DIR=TARGET_GUN
		CROSSPLANE_AXIS_DIR=LEFT_RIGHT
		DEPTH_AXIS_DIR=UP_DOWN
		ENERGY=6.00
		NOMINAL_DMAX=15.00
		SSD=900.00
		SCD=450.00
		WEDGE_ANGLE=0.00
		FIELD_INPLANE=100.00
		FIELD_CROSSPLANE=100.00
		FIELD_TYPE=RECTANGULAR
		GANTRY=0.00
		GANTRY_UPRIGHT_POSITION=0
		GANTRY_ROTATION=CW
		COLL_ANGLE=0.00
		COLL_OFFSET_INPLANE=0.00
		COLL_OFFSET_CROSSPLANE=0.00
		SCAN_DEVICE=BeamScan
		SCAN_DEVICE_SETUP=BARA_LEFT_RIGHT
		ELECTROMETER=BeamScan
		RANGE_FIELD=LOW
		RANGE_REFERENCE=MEDIUM
		DETECTOR=THIMBLE_CHAMBER
		DETECTOR_SUBCODE=SEMIFLEX
		DETECTOR_RADIUS=2.40
		DETECTOR_NAME=PTW 31021 Semiflex 3D (1)
		DETECTOR_SN=142316
		DETECTOR_CALIBRATION=588000000.00
		DETECTOR_IS_CALIBRATED=1
		DETECTOR_REFERENCE=THIMBLE_CHAMBER
		DETECTOR_REFERENCE_SUBCODE=SEMIFLEX
		DETECTOR_REFERENCE_RADIUS=2.75
		DETECTOR_REFERENCE_NAME=PTW 31010 Semiflex (1)
		DETECTOR_REFERENCE_SN=—
		DETECTOR_REFERENCE_IS_CALIBRATED=0
		DETECTOR_REFERENCE_CALIBRATION=303000000.00
		DETECTOR_HV=400.0
		DETECTOR_REFERENCE_HV=400.0
		DETECTOR_ORIENTATION=HORIZONTAL
		FILTER=FF
		SCAN_SPEED_PROFILE=10.00
		SCAN_PROF_SPEED_DEP=DEPTH
		SCAN_SPEED_PDD=12.50
		SCAN_PDD_SPEED_DEP=ENERGY
		DETECTOR_TYPE=T31021
		REF_FIELD_DEPTH=100.00
		REF_FIELD_DEFINED=ISOCENTER
		REF_FIELD_INPLANE=100.00
		REF_FIELD_CROSSPLANE=100.00
		REF_SCAN_POSITIONS=-85.00;-84.00;-83.00;-82.00;-81.00;-80.00;-79.00;-78.00;-77.00;-76.00;-75.00;-74.00;-73.00;-72.00;-71.00;-70.00;-69.00;-68.00;-67.00;-66.00;-65.00;-64.00;-63.00;-62.00;-61.00;-60.00;-59.00;-58.00;-57.00;-56.00;-55.00;-54.00;-53.00;-52.00;-51.00;-50.00;-49.00;-48.00;-47.00;-46.00;-45.00;-44.00;-43.00;-42.00;-41.00;-40.00;-39.00;-38.00;-37.00;-36.00;-35.00;-34.00;-33.00;-32.00;-31.00;-30.00;-29.00;-28.00;-27.00;-26.00;-25.00;-24.00;-23.00;-22.00;-21.00;-20.00;-19.00;-18.00;-17.00;-16.00;-15.00;-14.00;-13.00;-12.00;-11.00;-10.00;-9.00;-8.00;-7.00;-6.00;-5.00;-4.00;-3.00;-2.00;-1.00;0.00;1.00;2.00;3.00;4.00;5.00;6.00;7.00;8.00;9.00;10.00;11.00;12.00;13.00;14.00;15.00;16.00;17.00;18.00;19.00;20.00;21.00;22.00;23.00;24.00;25.00;26.00;27.00;28.00;29.00;30.00;31.00;32.00;33.00;34.00;35.00;36.00;37.00;38.00;39.00;40.00;41.00;42.00;43.00;44.00;45.00;46.00;47.00;48.00;49.00;50.00;51.00;52.00;53.00;54.00;55.00;56.00;57.00;58.00;59.00;60.00;61.00;62.00;63.00;64.00;65.00;66.00;67.00;68.00;69.00;70.00;71.00;72.00;73.00;74.00;75.00;76.00;77.00;78.00;79.00;80.00;81.00;82.00;83.00;84.00;85.00;
		REF_OVERSCAN_FACTOR=1.00
		SCAN_CURVETYPE=CROSSPLANE_PROFILE
		SCAN_DEPTH=300.00
		SCAN_OFFAXIS_INPLANE=0.00
		SCAN_OFFAXIS_CROSSPLANE=0.00
		SCAN_ANGLE=0.00
		SCAN_DIAGONAL=NOT_DIAGONAL
		SCAN_DIRECTION=POSITIVE
		MEAS_MEDIUM=WATER
		MEAS_PRESET=MEAS_CONTINUOUS_REFERENCE_SCAN
		MEAS_TIME=0.100
		MEAS_UNIT=A.U.
		INCLINATION_ANGLE=0.00
		PRESSURE=1013.25
		TEMPERATURE=20.00
		NORM_TEMPERATURE=20.00
		CORRECTION_FACTOR=1.0000
		EXPECTED_MAX_DOSE_RATE=3.00
		EPOM_DEPTH_SHIFT=0.2
		EPOM_MODE=SHIFT_PROTOCOL
		CORRECTIONS=SMOOTHED_CORR;CAX_CORR;SYMMETRY_CORR;INTERPOLATED_CORR;
		BEGIN_DATA
			-102.00		34.501E-03
			-100.00		35.876E-03
			-98.00		37.287E-03
			-96.00		38.658E-03
			-94.00		40.200E-03
			-92.00		42.256E-03
			-90.00		43.795E-03
			-88.00		45.677E-03
			-86.00		47.682E-03
			-84.00		50.049E-03
			-82.00		52.265E-03
			-80.00		54.444E-03
			-78.00		57.055E-03
			-76.00		59.926E-03
			-74.00		62.835E-03
			-72.00		66.326E-03
			-70.00		70.531E-03
			-68.00		76.126E-03
			-66.00		86.535E-03
			-64.00		107.29E-03
			-62.00		154.96E-03
			-60.00		229.69E-03
			-58.00		306.34E-03
			-56.00		355.70E-03
			-54.00		379.00E-03
			-52.00		389.56E-03
			-50.00		395.05E-03
			-48.00		398.92E-03
			-46.00		402.06E-03
			-44.00		405.05E-03
			-42.00		407.54E-03
			-40.00		409.91E-03
			-38.00		411.89E-03
			-36.00		413.78E-03
			-34.00		416.03E-03
			-32.00		417.78E-03
			-30.00		419.77E-03
			-28.00		421.02E-03
			-26.00		421.76E-03
			-24.00		423.05E-03
			-22.00		424.53E-03
			-20.00		425.56E-03
			-18.00		426.48E-03
			-16.00		426.67E-03
			-14.00		427.11E-03
			-12.00		427.48E-03
			-10.00		427.57E-03
			-8.00		427.64E-03
			-6.00		426.97E-03
			-4.00		427.68E-03
			-2.00		427.72E-03
			0.00		427.18E-03
			2.00		427.72E-03
			4.00		427.68E-03
			6.00		426.97E-03
			8.00		427.64E-03
			10.00		427.57E-03
			12.00		427.48E-03
			14.00		427.11E-03
			16.00		426.67E-03
			18.00		426.48E-03
			20.00		425.56E-03
			22.00		424.53E-03
			24.00		423.05E-03
			26.00		421.76E-03
			28.00		421.02E-03
			30.00		419.77E-03
			32.00		417.78E-03
			34.00		416.03E-03
			36.00		413.78E-03
			38.00		411.89E-03
			40.00		409.91E-03
			42.00		407.54E-03
			44.00		405.05E-03
			46.00		402.06E-03
			48.00		398.92E-03
			50.00		395.05E-03
			52.00		389.56E-03
			54.00		379.00E-03
			56.00		355.70E-03
			58.00		306.34E-03
			60.00		229.69E-03
			62.00		154.96E-03
			64.00		107.29E-03
			66.00		86.535E-03
			68.00		76.126E-03
			70.00		70.531E-03
			72.00		66.326E-03
			74.00		62.835E-03
			76.00		59.926E-03
			78.00		57.055E-03
			80.00		54.444E-03
			82.00		52.265E-03
			84.00		50.049E-03
			86.00		47.682E-03
			88.00		45.677E-03
			90.00		43.795E-03
			92.00		42.256E-03
			94.00		40.200E-03
			96.00		38.658E-03
			98.00		37.287E-03
			100.00		35.876E-03
			102.00		34.501E-03
		END_DATA
	END_SCAN  5
END_SCAN_DATA
