BEGIN_SCAN_DATA
	FORMAT=CC-Export V1.9                  
	FILE_CREATION_DATE=30-Oct-2022 19:20:30
	LAST_MODIFIED=30-Oct-2022 19:20:30
	BEGIN_SCAN  1
		TASK_NAME=tba PDD Profiles
		PROGRAM=WaterTankScans
		COMMENT=FBF_SanPietro
		MEAS_DATE=08-Feb-2021 09:38:10
		LINAC=MRIdian
		MODALITY=X
		ISOCENTER=900.00
		INPLANE_AXIS=Y
		CROSSPLANE_AXIS=X
		DEPTH_AXIS=Depth
		INPLANE_AXIS_DIR=TARGET_GUN
		CROSSPLANE_AXIS_DIR=LEFT_RIGHT
		DEPTH_AXIS_DIR=UP_DOWN
		ENERGY=6.00
		NOMINAL_DMAX=15.00
		SSD=850.00
		SCD=450.00
		WEDGE_ANGLE=0.00
		FIELD_INPLANE=199.20
		FIELD_CROSSPLANE=199.20
		FIELD_TYPE=RECTANGULAR
		GANTRY=0.00
		GANTRY_UPRIGHT_POSITION=0
		GANTRY_ROTATION=CW
		COLL_ANGLE=0.00
		COLL_OFFSET_INPLANE=0.00
		COLL_OFFSET_CROSSPLANE=0.00
		SCAN_DEVICE=BeamScan
		SCAN_DEVICE_SETUP=BARA_LEFT_RIGHT
		ELECTROMETER=BeamScan
		RANGE_FIELD=LOW
		RANGE_REFERENCE=MEDIUM
		DETECTOR=THIMBLE_CHAMBER
		DETECTOR_RADIUS=2.40
		DETECTOR_NAME=A28MR
		DETECTOR_SN=-
		DETECTOR_CALIBRATION=588000000.00
		DETECTOR_IS_CALIBRATED=0
		DETECTOR_REFERENCE=THIMBLE_CHAMBER
		DETECTOR_REFERENCE_RADIUS=2.75
		DETECTOR_REFERENCE_NAME=A28MR
		DETECTOR_REFERENCE_SN=—
		DETECTOR_REFERENCE_IS_CALIBRATED=0
		DETECTOR_REFERENCE_CALIBRATION=303000000.00
		DETECTOR_HV=300.0
		DETECTOR_REFERENCE_HV=300.0
		DETECTOR_ORIENTATION=HORIZONTAL
		FILTER=FFF
		SCAN_SPEED_PROFILE=10.00
		SCAN_PROF_SPEED_DEP=DEPTH
		SCAN_SPEED_PDD=0.00
		SCAN_PDD_SPEED_DEP=ENERGY
		DETECTOR_TYPE=A28MR
		REF_FIELD_DEPTH=220.00
		REF_FIELD_DEFINED=ISOCENTER
		REF_FIELD_INPLANE=100.00
		REF_FIELD_CROSSPLANE=100.00
		REF_SCAN_POSITIONS=-85.00;-84.00;-83.00;-82.00;-81.00;-80.00;-79.00;-78.00;-77.00;-76.00;-75.00;-74.00;-73.00;-72.00;-71.00;-70.00;-69.00;-68.00;-67.00;-66.00;-65.00;-64.00;-63.00;-62.00;-61.00;-60.00;-59.00;-58.00;-57.00;-56.00;-55.00;-54.00;-53.00;-52.00;-51.00;-50.00;-49.00;-48.00;-47.00;-46.00;-45.00;-44.00;-43.00;-42.00;-41.00;-40.00;-39.00;-38.00;-37.00;-36.00;-35.00;-34.00;-33.00;-32.00;-31.00;-30.00;-29.00;-28.00;-27.00;-26.00;-25.00;-24.00;-23.00;-22.00;-21.00;-20.00;-19.00;-18.00;-17.00;-16.00;-15.00;-14.00;-13.00;-12.00;-11.00;-10.00;-9.00;-8.00;-7.00;-6.00;-5.00;-4.00;-3.00;-2.00;-1.00;0.00;1.00;2.00;3.00;4.00;5.00;6.00;7.00;8.00;9.00;10.00;11.00;12.00;13.00;14.00;15.00;16.00;17.00;18.00;19.00;20.00;21.00;22.00;23.00;24.00;25.00;26.00;27.00;28.00;29.00;30.00;31.00;32.00;33.00;34.00;35.00;36.00;37.00;38.00;39.00;40.00;41.00;42.00;43.00;44.00;45.00;46.00;47.00;48.00;49.00;50.00;51.00;52.00;53.00;54.00;55.00;56.00;57.00;58.00;59.00;60.00;61.00;62.00;63.00;64.00;65.00;66.00;67.00;68.00;69.00;70.00;71.00;72.00;73.00;74.00;75.00;76.00;77.00;78.00;79.00;80.00;81.00;82.00;83.00;84.00;85.00;
		REF_OVERSCAN_FACTOR=1.00
		SCAN_CURVETYPE=INPLANE_PROFILE
		SCAN_DEPTH=20.00
		SCAN_OFFAXIS_INPLANE=0.00
		SCAN_OFFAXIS_CROSSPLANE=0.00
		SCAN_ANGLE=0.00
		SCAN_DIAGONAL=NOT_DIAGONAL
		SCAN_DIRECTION=POSITIVE
		MEAS_MEDIUM=WATER
		MEAS_PRESET=MEAS_CONTINUOUS_REFERENCE_SCAN
		MEAS_TIME=0.100
		MEAS_UNIT=A.U.
		INCLINATION_ANGLE=0.00
		PRESSURE=1013.25
		TEMPERATURE=20.00
		NORM_TEMPERATURE=20.00
		CORRECTION_FACTOR=1.0000
		EXPECTED_MAX_DOSE_RATE=3.00
		EPOM_DEPTH_SHIFT=0.2
		EPOM_MODE=SHIFT_PROTOCOL
		CORRECTIONS=SMOOTHED_CORR;CAX_CORR;INTERPOLATED_CORR;
		BEGIN_DATA
			-140.00		10.904E+00
			-139.50		10.975E+00
			-139.00		11.095E+00
			-138.50		11.255E+00
			-138.00		11.325E+00
			-137.50		11.317E+00
			-137.00		11.398E+00
			-136.50		11.553E+00
			-136.00		11.708E+00
			-135.50		11.863E+00
			-135.00		11.953E+00
			-134.50		11.989E+00
			-134.00		12.086E+00
			-133.50		12.234E+00
			-133.00		12.304E+00
			-132.50		12.307E+00
			-132.00		12.421E+00
			-131.50		12.630E+00
			-131.00		12.818E+00
			-130.50		12.988E+00
			-130.00		13.115E+00
			-129.50		13.204E+00
			-129.00		13.364E+00
			-128.50		13.596E+00
			-128.00		13.744E+00
			-127.50		13.814E+00
			-127.00		13.966E+00
			-126.50		14.195E+00
			-126.00		14.372E+00
			-125.50		14.502E+00
			-125.00		14.670E+00
			-124.50		14.874E+00
			-124.00		15.073E+00
			-123.50		15.268E+00
			-123.00		15.453E+00
			-122.50		15.630E+00
			-122.00		15.779E+00
			-121.50		15.904E+00
			-121.00		16.103E+00
			-120.50		16.370E+00
			-120.00		16.622E+00
			-119.50		16.862E+00
			-119.00		17.104E+00
			-118.50		17.347E+00
			-118.00		17.600E+00
			-117.50		17.861E+00
			-117.00		18.151E+00
			-116.50		18.468E+00
			-116.00		18.768E+00
			-115.50		19.052E+00
			-115.00		19.313E+00
			-114.50		19.552E+00
			-114.00		19.892E+00
			-113.50		20.324E+00
			-113.00		20.746E+00
			-112.50		21.159E+00
			-112.00		21.563E+00
			-111.50		21.959E+00
			-111.00		22.329E+00
			-110.50		22.678E+00
			-110.00		23.119E+00
			-109.50		23.640E+00
			-109.00		24.175E+00
			-108.50		24.720E+00
			-108.00		25.317E+00
			-107.50		25.958E+00
			-107.00		26.699E+00
			-106.50		27.531E+00
			-106.00		28.574E+00
			-105.50		29.813E+00
			-105.00		31.374E+00
			-104.50		33.255E+00
			-104.00		35.746E+00
			-103.50		38.848E+00
			-103.00		42.883E+00
			-102.50		47.850E+00
			-102.00		54.528E+00
			-101.50		62.917E+00
			-101.00		73.097E+00
			-100.50		84.931E+00
			-100.00		98.548E+00
			-99.50		113.68E+00
			-99.00		129.71E+00
			-98.50		146.55E+00
			-98.00		163.89E+00
			-97.50		181.67E+00
			-97.00		199.18E+00
			-96.50		216.44E+00
			-96.00		232.68E+00
			-95.50		247.98E+00
			-95.00		261.94E+00
			-94.50		274.55E+00
			-94.00		286.06E+00
			-93.50		296.47E+00
			-93.00		305.38E+00
			-92.50		312.81E+00
			-92.00		319.10E+00
			-91.50		324.25E+00
			-91.00		328.87E+00
			-90.50		332.98E+00
			-90.00		336.53E+00
			-89.50		339.56E+00
			-89.00		342.27E+00
			-88.50		344.69E+00
			-88.00		346.68E+00
			-87.50		348.27E+00
			-87.00		349.68E+00
			-86.50		350.93E+00
			-86.00		352.19E+00
			-85.50		353.47E+00
			-85.00		354.75E+00
			-84.50		356.03E+00
			-84.00		357.27E+00
			-83.50		358.46E+00
			-83.00		359.60E+00
			-82.50		360.67E+00
			-82.00		361.70E+00
			-81.50		362.69E+00
			-81.00		363.68E+00
			-80.50		364.68E+00
			-80.00		365.73E+00
			-79.50		366.82E+00
			-79.00		367.91E+00
			-78.50		368.99E+00
			-78.00		370.02E+00
			-77.50		371.00E+00
			-77.00		371.95E+00
			-76.50		372.87E+00
			-76.00		373.79E+00
			-75.50		374.70E+00
			-75.00		375.59E+00
			-74.50		376.48E+00
			-74.00		377.39E+00
			-73.50		378.33E+00
			-73.00		379.27E+00
			-72.50		380.23E+00
			-72.00		381.15E+00
			-71.50		382.05E+00
			-71.00		382.93E+00
			-70.50		383.79E+00
			-70.00		384.66E+00
			-69.50		385.52E+00
			-69.00		386.40E+00
			-68.50		387.30E+00
			-68.00		388.20E+00
			-67.50		389.11E+00
			-67.00		390.02E+00
			-66.50		390.92E+00
			-66.00		391.84E+00
			-65.50		392.80E+00
			-65.00		393.78E+00
			-64.50		394.78E+00
			-64.00		395.75E+00
			-63.50		396.71E+00
			-63.00		397.62E+00
			-62.50		398.51E+00
			-62.00		399.38E+00
			-61.50		400.24E+00
			-61.00		401.12E+00
			-60.50		402.02E+00
			-60.00		402.96E+00
			-59.50		403.93E+00
			-59.00		404.91E+00
			-58.50		405.89E+00
			-58.00		406.86E+00
			-57.50		407.81E+00
			-57.00		408.75E+00
			-56.50		409.68E+00
			-56.00		410.62E+00
			-55.50		411.55E+00
			-55.00		412.47E+00
			-54.50		413.38E+00
			-54.00		414.26E+00
			-53.50		415.11E+00
			-53.00		415.94E+00
			-52.50		416.77E+00
			-52.00		417.64E+00
			-51.50		418.54E+00
			-51.00		419.47E+00
			-50.50		420.43E+00
			-50.00		421.37E+00
			-49.50		422.31E+00
			-49.00		423.23E+00
			-48.50		424.14E+00
			-48.00		425.05E+00
			-47.50		425.97E+00
			-47.00		426.89E+00
			-46.50		427.83E+00
			-46.00		428.73E+00
			-45.50		429.60E+00
			-45.00		430.43E+00
			-44.50		431.21E+00
			-44.00		432.03E+00
			-43.50		432.89E+00
			-43.00		433.80E+00
			-42.50		434.76E+00
			-42.00		435.66E+00
			-41.50		436.53E+00
			-41.00		437.35E+00
			-40.50		438.14E+00
			-40.00		438.97E+00
			-39.50		439.85E+00
			-39.00		440.72E+00
			-38.50		441.60E+00
			-38.00		442.43E+00
			-37.50		443.21E+00
			-37.00		444.00E+00
			-36.50		444.78E+00
			-36.00		445.61E+00
			-35.50		446.49E+00
			-35.00		447.38E+00
			-34.50		448.30E+00
			-34.00		449.19E+00
			-33.50		450.05E+00
			-33.00		450.90E+00
			-32.50		451.71E+00
			-32.00		452.52E+00
			-31.50		453.32E+00
			-31.00		454.10E+00
			-30.50		454.87E+00
			-30.00		455.63E+00
			-29.50		456.38E+00
			-29.00		457.14E+00
			-28.50		457.90E+00
			-28.00		458.65E+00
			-27.50		459.37E+00
			-27.00		460.05E+00
			-26.50		460.69E+00
			-26.00		461.29E+00
			-25.50		461.87E+00
			-25.00		462.46E+00
			-24.50		463.05E+00
			-24.00		463.67E+00
			-23.50		464.33E+00
			-23.00		465.01E+00
			-22.50		465.72E+00
			-22.00		466.44E+00
			-21.50		467.17E+00
			-21.00		467.87E+00
			-20.50		468.57E+00
			-20.00		469.22E+00
			-19.50		469.84E+00
			-19.00		470.44E+00
			-18.50		471.02E+00
			-18.00		471.63E+00
			-17.50		472.24E+00
			-17.00		472.85E+00
			-16.50		473.46E+00
			-16.00		474.00E+00
			-15.50		474.49E+00
			-15.00		474.93E+00
			-14.50		475.32E+00
			-14.00		475.71E+00
			-13.50		476.10E+00
			-13.00		476.49E+00
			-12.50		476.89E+00
			-12.00		477.29E+00
			-11.50		477.68E+00
			-11.00		478.07E+00
			-10.50		478.45E+00
			-10.00		478.82E+00
			-9.50		479.17E+00
			-9.00		479.50E+00
			-8.50		479.80E+00
			-8.00		480.08E+00
			-7.50		480.36E+00
			-7.00		480.62E+00
			-6.50		480.89E+00
			-6.00		481.14E+00
			-5.50		481.38E+00
			-5.00		481.61E+00
			-4.50		481.84E+00
			-4.00		482.07E+00
			-3.50		482.29E+00
			-3.00		482.49E+00
			-2.50		482.66E+00
			-2.00		482.80E+00
			-1.50		482.90E+00
			-1.00		482.97E+00
			-0.50		483.01E+00
			0.00		483.03E+00
			0.50		483.01E+00
			1.00		482.98E+00
			1.50		482.92E+00
			2.00		482.86E+00
			2.50		482.81E+00
			3.00		482.75E+00
			3.50		482.69E+00
			4.00		482.61E+00
			4.50		482.51E+00
			5.00		482.38E+00
			5.50		482.23E+00
			6.00		482.04E+00
			6.50		481.82E+00
			7.00		481.56E+00
			7.50		481.27E+00
			8.00		480.95E+00
			8.50		480.60E+00
			9.00		480.25E+00
			9.50		479.89E+00
			10.00		479.52E+00
			10.50		479.15E+00
			11.00		478.79E+00
			11.50		478.44E+00
			12.00		478.09E+00
			12.50		477.74E+00
			13.00		477.36E+00
			13.50		476.96E+00
			14.00		476.51E+00
			14.50		476.04E+00
			15.00		475.56E+00
			15.50		475.09E+00
			16.00		474.62E+00
			16.50		474.15E+00
			17.00		473.68E+00
			17.50		473.20E+00
			18.00		472.72E+00
			18.50		472.23E+00
			19.00		471.74E+00
			19.50		471.25E+00
			20.00		470.75E+00
			20.50		470.21E+00
			21.00		469.64E+00
			21.50		469.03E+00
			22.00		468.39E+00
			22.50		467.74E+00
			23.00		467.09E+00
			23.50		466.44E+00
			24.00		465.77E+00
			24.50		465.09E+00
			25.00		464.36E+00
			25.50		463.59E+00
			26.00		462.80E+00
			26.50		461.97E+00
			27.00		461.13E+00
			27.50		460.28E+00
			28.00		459.46E+00
			28.50		458.65E+00
			29.00		457.87E+00
			29.50		457.12E+00
			30.00		456.37E+00
			30.50		455.62E+00
			31.00		454.84E+00
			31.50		454.04E+00
			32.00		453.21E+00
			32.50		452.36E+00
			33.00		451.52E+00
			33.50		450.68E+00
			34.00		449.84E+00
			34.50		449.02E+00
			35.00		448.17E+00
			35.50		447.31E+00
			36.00		446.43E+00
			36.50		445.53E+00
			37.00		444.65E+00
			37.50		443.77E+00
			38.00		442.92E+00
			38.50		442.10E+00
			39.00		441.29E+00
			39.50		440.50E+00
			40.00		439.71E+00
			40.50		438.93E+00
			41.00		438.13E+00
			41.50		437.33E+00
			42.00		436.48E+00
			42.50		435.61E+00
			43.00		434.68E+00
			43.50		433.72E+00
			44.00		432.74E+00
			44.50		431.74E+00
			45.00		430.77E+00
			45.50		429.82E+00
			46.00		428.90E+00
			46.50		428.00E+00
			47.00		427.11E+00
			47.50		426.22E+00
			48.00		425.29E+00
			48.50		424.33E+00
			49.00		423.37E+00
			49.50		422.42E+00
			50.00		421.50E+00
			50.50		420.62E+00
			51.00		419.71E+00
			51.50		418.77E+00
			52.00		417.79E+00
			52.50		416.77E+00
			53.00		415.80E+00
			53.50		414.90E+00
			54.00		414.07E+00
			54.50		413.31E+00
			55.00		412.50E+00
			55.50		411.67E+00
			56.00		410.77E+00
			56.50		409.81E+00
			57.00		408.83E+00
			57.50		407.84E+00
			58.00		406.87E+00
			58.50		405.93E+00
			59.00		405.00E+00
			59.50		404.09E+00
			60.00		403.18E+00
			60.50		402.24E+00
			61.00		401.30E+00
			61.50		400.35E+00
			62.00		399.39E+00
			62.50		398.42E+00
			63.00		397.42E+00
			63.50		396.40E+00
			64.00		395.39E+00
			64.50		394.40E+00
			65.00		393.49E+00
			65.50		392.67E+00
			66.00		391.86E+00
			66.50		391.05E+00
			67.00		390.14E+00
			67.50		389.12E+00
			68.00		388.04E+00
			68.50		386.91E+00
			69.00		385.86E+00
			69.50		384.88E+00
			70.00		383.99E+00
			70.50		383.18E+00
			71.00		382.39E+00
			71.50		381.62E+00
			72.00		380.82E+00
			72.50		379.99E+00
			73.00		379.12E+00
			73.50		378.22E+00
			74.00		377.31E+00
			74.50		376.38E+00
			75.00		375.45E+00
			75.50		374.51E+00
			76.00		373.58E+00
			76.50		372.65E+00
			77.00		371.74E+00
			77.50		370.84E+00
			78.00		369.93E+00
			78.50		369.03E+00
			79.00		368.11E+00
			79.50		367.18E+00
			80.00		366.24E+00
			80.50		365.30E+00
			81.00		364.36E+00
			81.50		363.42E+00
			82.00		362.50E+00
			82.50		361.60E+00
			83.00		360.69E+00
			83.50		359.77E+00
			84.00		358.84E+00
			84.50		357.88E+00
			85.00		356.89E+00
			85.50		355.89E+00
			86.00		354.82E+00
			86.50		353.69E+00
			87.00		352.48E+00
			87.50		351.20E+00
			88.00		349.75E+00
			88.50		348.13E+00
			89.00		346.56E+00
			89.50		345.05E+00
			90.00		343.02E+00
			90.50		340.51E+00
			91.00		337.39E+00
			91.50		333.71E+00
			92.00		328.68E+00
			92.50		322.42E+00
			93.00		314.33E+00
			93.50		304.54E+00
			94.00		293.05E+00
			94.50		279.98E+00
			95.00		265.10E+00
			95.50		248.39E+00
			96.00		230.76E+00
			96.50		212.29E+00
			97.00		194.22E+00
			97.50		176.57E+00
			98.00		159.27E+00
			98.50		142.32E+00
			99.00		126.67E+00
			99.50		112.24E+00
			100.00		99.367E+00
			100.50		88.062E+00
			101.00		78.102E+00
			101.50		69.384E+00
			102.00		61.917E+00
			102.50		55.605E+00
			103.00		50.142E+00
			103.50		45.462E+00
			104.00		41.445E+00
			104.50		38.039E+00
			105.00		35.227E+00
			105.50		32.922E+00
			106.00		31.019E+00
			106.50		29.489E+00
			107.00		28.180E+00
			107.50		27.093E+00
			108.00		26.091E+00
			108.50		25.168E+00
			109.00		24.474E+00
			109.50		24.011E+00
			110.00		23.508E+00
			110.50		22.971E+00
			111.00		22.500E+00
			111.50		22.097E+00
			112.00		21.644E+00
			112.50		21.141E+00
			113.00		20.730E+00
			113.50		20.403E+00
			114.00		20.026E+00
			114.50		19.601E+00
			115.00		19.250E+00
			115.50		18.968E+00
			116.00		18.712E+00
			116.50		18.480E+00
			117.00		18.167E+00
			117.50		17.780E+00
			118.00		17.478E+00
			118.50		17.249E+00
			119.00		16.993E+00
			119.50		16.713E+00
			120.00		16.425E+00
			120.50		16.128E+00
			121.00		15.907E+00
			121.50		15.754E+00
			122.00		15.553E+00
			122.50		15.306E+00
			123.00		15.087E+00
			123.50		14.893E+00
			124.00		14.758E+00
			124.50		14.680E+00
			125.00		14.478E+00
			125.50		14.162E+00
			126.00		13.934E+00
			126.50		13.788E+00
			127.00		13.599E+00
			127.50		13.371E+00
			128.00		13.202E+00
			128.50		13.085E+00
			129.00		12.945E+00
			129.50		12.783E+00
			130.00		12.631E+00
			130.50		12.487E+00
			131.00		12.351E+00
			131.50		12.222E+00
			132.00		12.049E+00
			132.50		11.840E+00
			133.00		11.702E+00
			133.50		11.624E+00
			134.00		11.504E+00
			134.50		11.343E+00
			135.00		11.220E+00
			135.50		11.132E+00
			136.00		11.003E+00
			136.50		10.837E+00
			137.00		10.733E+00
			137.50		10.686E+00
			138.00		10.573E+00
			138.50		10.400E+00
			139.00		10.263E+00
			139.50		10.157E+00
		END_DATA
	END_SCAN  1
	BEGIN_SCAN  2
		TASK_NAME=tba PDD Profiles
		PROGRAM=WaterTankScans
		COMMENT=FBF_SanPietro
		MEAS_DATE=08-Feb-2021 09:38:10
		LINAC=MRIdian
		MODALITY=X
		ISOCENTER=900.00
		INPLANE_AXIS=Y
		CROSSPLANE_AXIS=X
		DEPTH_AXIS=Depth
		INPLANE_AXIS_DIR=TARGET_GUN
		CROSSPLANE_AXIS_DIR=LEFT_RIGHT
		DEPTH_AXIS_DIR=UP_DOWN
		ENERGY=6.00
		NOMINAL_DMAX=15.00
		SSD=850.00
		SCD=450.00
		WEDGE_ANGLE=0.00
		FIELD_INPLANE=199.20
		FIELD_CROSSPLANE=199.20
		FIELD_TYPE=RECTANGULAR
		GANTRY=0.00
		GANTRY_UPRIGHT_POSITION=0
		GANTRY_ROTATION=CW
		COLL_ANGLE=0.00
		COLL_OFFSET_INPLANE=0.00
		COLL_OFFSET_CROSSPLANE=0.00
		SCAN_DEVICE=BeamScan
		SCAN_DEVICE_SETUP=BARA_LEFT_RIGHT
		ELECTROMETER=BeamScan
		RANGE_FIELD=LOW
		RANGE_REFERENCE=MEDIUM
		DETECTOR=THIMBLE_CHAMBER
		DETECTOR_RADIUS=2.40
		DETECTOR_NAME=A28MR
		DETECTOR_SN=-
		DETECTOR_CALIBRATION=588000000.00
		DETECTOR_IS_CALIBRATED=0
		DETECTOR_REFERENCE=THIMBLE_CHAMBER
		DETECTOR_REFERENCE_RADIUS=2.75
		DETECTOR_REFERENCE_NAME=A28MR
		DETECTOR_REFERENCE_SN=—
		DETECTOR_REFERENCE_IS_CALIBRATED=0
		DETECTOR_REFERENCE_CALIBRATION=303000000.00
		DETECTOR_HV=300.0
		DETECTOR_REFERENCE_HV=300.0
		DETECTOR_ORIENTATION=HORIZONTAL
		FILTER=FFF
		SCAN_SPEED_PROFILE=10.00
		SCAN_PROF_SPEED_DEP=DEPTH
		SCAN_SPEED_PDD=0.00
		SCAN_PDD_SPEED_DEP=ENERGY
		DETECTOR_TYPE=A28MR
		REF_FIELD_DEPTH=220.00
		REF_FIELD_DEFINED=ISOCENTER
		REF_FIELD_INPLANE=100.00
		REF_FIELD_CROSSPLANE=100.00
		REF_SCAN_POSITIONS=-85.00;-84.00;-83.00;-82.00;-81.00;-80.00;-79.00;-78.00;-77.00;-76.00;-75.00;-74.00;-73.00;-72.00;-71.00;-70.00;-69.00;-68.00;-67.00;-66.00;-65.00;-64.00;-63.00;-62.00;-61.00;-60.00;-59.00;-58.00;-57.00;-56.00;-55.00;-54.00;-53.00;-52.00;-51.00;-50.00;-49.00;-48.00;-47.00;-46.00;-45.00;-44.00;-43.00;-42.00;-41.00;-40.00;-39.00;-38.00;-37.00;-36.00;-35.00;-34.00;-33.00;-32.00;-31.00;-30.00;-29.00;-28.00;-27.00;-26.00;-25.00;-24.00;-23.00;-22.00;-21.00;-20.00;-19.00;-18.00;-17.00;-16.00;-15.00;-14.00;-13.00;-12.00;-11.00;-10.00;-9.00;-8.00;-7.00;-6.00;-5.00;-4.00;-3.00;-2.00;-1.00;0.00;1.00;2.00;3.00;4.00;5.00;6.00;7.00;8.00;9.00;10.00;11.00;12.00;13.00;14.00;15.00;16.00;17.00;18.00;19.00;20.00;21.00;22.00;23.00;24.00;25.00;26.00;27.00;28.00;29.00;30.00;31.00;32.00;33.00;34.00;35.00;36.00;37.00;38.00;39.00;40.00;41.00;42.00;43.00;44.00;45.00;46.00;47.00;48.00;49.00;50.00;51.00;52.00;53.00;54.00;55.00;56.00;57.00;58.00;59.00;60.00;61.00;62.00;63.00;64.00;65.00;66.00;67.00;68.00;69.00;70.00;71.00;72.00;73.00;74.00;75.00;76.00;77.00;78.00;79.00;80.00;81.00;82.00;83.00;84.00;85.00;
		REF_OVERSCAN_FACTOR=1.00
		SCAN_CURVETYPE=INPLANE_PROFILE
		SCAN_DEPTH=55.00
		SCAN_OFFAXIS_INPLANE=0.00
		SCAN_OFFAXIS_CROSSPLANE=0.00
		SCAN_ANGLE=0.00
		SCAN_DIAGONAL=NOT_DIAGONAL
		SCAN_DIRECTION=POSITIVE
		MEAS_MEDIUM=WATER
		MEAS_PRESET=MEAS_CONTINUOUS_REFERENCE_SCAN
		MEAS_TIME=0.100
		MEAS_UNIT=A.U.
		INCLINATION_ANGLE=0.00
		PRESSURE=1013.25
		TEMPERATURE=20.00
		NORM_TEMPERATURE=20.00
		CORRECTION_FACTOR=1.0000
		EXPECTED_MAX_DOSE_RATE=3.00
		EPOM_DEPTH_SHIFT=0.2
		EPOM_MODE=SHIFT_PROTOCOL
		CORRECTIONS=SMOOTHED_CORR;CAX_CORR;INTERPOLATED_CORR;
		BEGIN_DATA
			-140.00		14.379E+00
			-139.50		14.443E+00
			-139.00		14.499E+00
			-138.50		14.548E+00
			-138.00		14.669E+00
			-137.50		14.858E+00
			-137.00		15.056E+00
			-136.50		15.261E+00
			-136.00		15.473E+00
			-135.50		15.690E+00
			-135.00		15.870E+00
			-134.50		16.017E+00
			-134.00		16.154E+00
			-133.50		16.281E+00
			-133.00		16.455E+00
			-132.50		16.675E+00
			-132.00		16.864E+00
			-131.50		17.023E+00
			-131.00		17.202E+00
			-130.50		17.401E+00
			-130.00		17.623E+00
			-129.50		17.866E+00
			-129.00		18.124E+00
			-128.50		18.396E+00
			-128.00		18.595E+00
			-127.50		18.722E+00
			-127.00		18.927E+00
			-126.50		19.208E+00
			-126.00		19.514E+00
			-125.50		19.844E+00
			-125.00		20.118E+00
			-124.50		20.340E+00
			-124.00		20.631E+00
			-123.50		20.986E+00
			-123.00		21.272E+00
			-122.50		21.489E+00
			-122.00		21.780E+00
			-121.50		22.135E+00
			-121.00		22.508E+00
			-120.50		22.897E+00
			-120.00		23.229E+00
			-119.50		23.507E+00
			-119.00		23.866E+00
			-118.50		24.299E+00
			-118.00		24.729E+00
			-117.50		25.156E+00
			-117.00		25.579E+00
			-116.50		25.997E+00
			-116.00		26.462E+00
			-115.50		26.974E+00
			-115.00		27.460E+00
			-114.50		27.920E+00
			-114.00		28.422E+00
			-113.50		28.965E+00
			-113.00		29.563E+00
			-112.50		30.212E+00
			-112.00		30.893E+00
			-111.50		31.602E+00
			-111.00		32.370E+00
			-110.50		33.197E+00
			-110.00		34.167E+00
			-109.50		35.258E+00
			-109.00		36.565E+00
			-108.50		38.073E+00
			-108.00		40.035E+00
			-107.50		42.417E+00
			-107.00		45.525E+00
			-106.50		49.359E+00
			-106.00		54.249E+00
			-105.50		60.194E+00
			-105.00		67.721E+00
			-104.50		76.964E+00
			-104.00		87.309E+00
			-103.50		98.849E+00
			-103.00		111.35E+00
			-102.50		124.88E+00
			-102.00		138.44E+00
			-101.50		152.01E+00
			-101.00		165.52E+00
			-100.50		178.95E+00
			-100.00		191.61E+00
			-99.50		203.56E+00
			-99.00		214.37E+00
			-98.50		224.04E+00
			-98.00		232.95E+00
			-97.50		241.09E+00
			-97.00		248.18E+00
			-96.50		254.24E+00
			-96.00		259.67E+00
			-95.50		264.50E+00
			-95.00		268.82E+00
			-94.50		272.63E+00
			-94.00		275.89E+00
			-93.50		278.57E+00
			-93.00		281.00E+00
			-92.50		283.16E+00
			-92.00		285.14E+00
			-91.50		286.92E+00
			-91.00		288.56E+00
			-90.50		290.05E+00
			-90.00		291.39E+00
			-89.50		292.60E+00
			-89.00		293.70E+00
			-88.50		294.72E+00
			-88.00		295.75E+00
			-87.50		296.79E+00
			-87.00		297.85E+00
			-86.50		298.92E+00
			-86.00		299.94E+00
			-85.50		300.91E+00
			-85.00		301.85E+00
			-84.50		302.76E+00
			-84.00		303.70E+00
			-83.50		304.66E+00
			-83.00		305.64E+00
			-82.50		306.63E+00
			-82.00		307.57E+00
			-81.50		308.46E+00
			-81.00		309.33E+00
			-80.50		310.19E+00
			-80.00		311.09E+00
			-79.50		312.01E+00
			-79.00		312.91E+00
			-78.50		313.79E+00
			-78.00		314.62E+00
			-77.50		315.40E+00
			-77.00		316.16E+00
			-76.50		316.91E+00
			-76.00		317.70E+00
			-75.50		318.52E+00
			-75.00		319.39E+00
			-74.50		320.32E+00
			-74.00		321.24E+00
			-73.50		322.14E+00
			-73.00		323.00E+00
			-72.50		323.82E+00
			-72.00		324.60E+00
			-71.50		325.36E+00
			-71.00		326.10E+00
			-70.50		326.83E+00
			-70.00		327.58E+00
			-69.50		328.34E+00
			-69.00		329.12E+00
			-68.50		329.94E+00
			-68.00		330.75E+00
			-67.50		331.55E+00
			-67.00		332.34E+00
			-66.50		333.10E+00
			-66.00		333.89E+00
			-65.50		334.71E+00
			-65.00		335.56E+00
			-64.50		336.44E+00
			-64.00		337.30E+00
			-63.50		338.15E+00
			-63.00		338.97E+00
			-62.50		339.76E+00
			-62.00		340.53E+00
			-61.50		341.29E+00
			-61.00		342.04E+00
			-60.50		342.77E+00
			-60.00		343.52E+00
			-59.50		344.29E+00
			-59.00		345.10E+00
			-58.50		345.94E+00
			-58.00		346.77E+00
			-57.50		347.58E+00
			-57.00		348.37E+00
			-56.50		349.12E+00
			-56.00		349.88E+00
			-55.50		350.64E+00
			-55.00		351.38E+00
			-54.50		352.11E+00
			-54.00		352.84E+00
			-53.50		353.56E+00
			-53.00		354.33E+00
			-52.50		355.13E+00
			-52.00		355.90E+00
			-51.50		356.66E+00
			-51.00		357.36E+00
			-50.50		358.00E+00
			-50.00		358.66E+00
			-49.50		359.32E+00
			-49.00		360.03E+00
			-48.50		360.79E+00
			-48.00		361.58E+00
			-47.50		362.40E+00
			-47.00		363.21E+00
			-46.50		364.00E+00
			-46.00		364.78E+00
			-45.50		365.56E+00
			-45.00		366.35E+00
			-44.50		367.16E+00
			-44.00		367.96E+00
			-43.50		368.75E+00
			-43.00		369.53E+00
			-42.50		370.30E+00
			-42.00		371.07E+00
			-41.50		371.85E+00
			-41.00		372.60E+00
			-40.50		373.32E+00
			-40.00		374.01E+00
			-39.50		374.65E+00
			-39.00		375.28E+00
			-38.50		375.87E+00
			-38.00		376.46E+00
			-37.50		377.04E+00
			-37.00		377.64E+00
			-36.50		378.24E+00
			-36.00		378.88E+00
			-35.50		379.55E+00
			-35.00		380.25E+00
			-34.50		380.98E+00
			-34.00		381.68E+00
			-33.50		382.35E+00
			-33.00		382.94E+00
			-32.50		383.47E+00
			-32.00		383.99E+00
			-31.50		384.51E+00
			-31.00		385.08E+00
			-30.50		385.72E+00
			-30.00		386.42E+00
			-29.50		387.18E+00
			-29.00		387.94E+00
			-28.50		388.71E+00
			-28.00		389.42E+00
			-27.50		390.08E+00
			-27.00		390.68E+00
			-26.50		391.22E+00
			-26.00		391.73E+00
			-25.50		392.20E+00
			-25.00		392.67E+00
			-24.50		393.14E+00
			-24.00		393.62E+00
			-23.50		394.12E+00
			-23.00		394.62E+00
			-22.50		395.14E+00
			-22.00		395.65E+00
			-21.50		396.17E+00
			-21.00		396.67E+00
			-20.50		397.16E+00
			-20.00		397.64E+00
			-19.50		398.11E+00
			-19.00		398.58E+00
			-18.50		399.05E+00
			-18.00		399.53E+00
			-17.50		400.00E+00
			-17.00		400.46E+00
			-16.50		400.91E+00
			-16.00		401.34E+00
			-15.50		401.78E+00
			-15.00		402.21E+00
			-14.50		402.63E+00
			-14.00		403.04E+00
			-13.50		403.44E+00
			-13.00		403.80E+00
			-12.50		404.14E+00
			-12.00		404.43E+00
			-11.50		404.68E+00
			-11.00		404.90E+00
			-10.50		405.10E+00
			-10.00		405.30E+00
			-9.50		405.48E+00
			-9.00		405.67E+00
			-8.50		405.85E+00
			-8.00		406.04E+00
			-7.50		406.23E+00
			-7.00		406.41E+00
			-6.50		406.60E+00
			-6.00		406.77E+00
			-5.50		406.92E+00
			-5.00		407.06E+00
			-4.50		407.18E+00
			-4.00		407.30E+00
			-3.50		407.43E+00
			-3.00		407.56E+00
			-2.50		407.71E+00
			-2.00		407.83E+00
			-1.50		407.94E+00
			-1.00		408.03E+00
			-0.50		408.11E+00
			0.00		408.17E+00
			0.50		408.22E+00
			1.00		408.27E+00
			1.50		408.30E+00
			2.00		408.30E+00
			2.50		408.29E+00
			3.00		408.24E+00
			3.50		408.16E+00
			4.00		408.04E+00
			4.50		407.87E+00
			5.00		407.68E+00
			5.50		407.46E+00
			6.00		407.24E+00
			6.50		407.01E+00
			7.00		406.79E+00
			7.50		406.57E+00
			8.00		406.33E+00
			8.50		406.07E+00
			9.00		405.79E+00
			9.50		405.48E+00
			10.00		405.15E+00
			10.50		404.80E+00
			11.00		404.44E+00
			11.50		404.07E+00
			12.00		403.72E+00
			12.50		403.40E+00
			13.00		403.10E+00
			13.50		402.83E+00
			14.00		402.56E+00
			14.50		402.30E+00
			15.00		402.02E+00
			15.50		401.72E+00
			16.00		401.39E+00
			16.50		401.01E+00
			17.00		400.58E+00
			17.50		400.10E+00
			18.00		399.59E+00
			18.50		399.07E+00
			19.00		398.58E+00
			19.50		398.12E+00
			20.00		397.69E+00
			20.50		397.26E+00
			21.00		396.81E+00
			21.50		396.33E+00
			22.00		395.80E+00
			22.50		395.23E+00
			23.00		394.65E+00
			23.50		394.06E+00
			24.00		393.50E+00
			24.50		392.95E+00
			25.00		392.42E+00
			25.50		391.91E+00
			26.00		391.36E+00
			26.50		390.79E+00
			27.00		390.17E+00
			27.50		389.52E+00
			28.00		388.86E+00
			28.50		388.19E+00
			29.00		387.55E+00
			29.50		386.92E+00
			30.00		386.33E+00
			30.50		385.75E+00
			31.00		385.19E+00
			31.50		384.63E+00
			32.00		384.06E+00
			32.50		383.48E+00
			33.00		382.87E+00
			33.50		382.23E+00
			34.00		381.57E+00
			34.50		380.89E+00
			35.00		380.21E+00
			35.50		379.52E+00
			36.00		378.86E+00
			36.50		378.22E+00
			37.00		377.60E+00
			37.50		377.02E+00
			38.00		376.42E+00
			38.50		375.82E+00
			39.00		375.18E+00
			39.50		374.49E+00
			40.00		373.76E+00
			40.50		373.00E+00
			41.00		372.24E+00
			41.50		371.48E+00
			42.00		370.72E+00
			42.50		369.96E+00
			43.00		369.19E+00
			43.50		368.41E+00
			44.00		367.63E+00
			44.50		366.86E+00
			45.00		366.11E+00
			45.50		365.39E+00
			46.00		364.68E+00
			46.50		363.98E+00
			47.00		363.29E+00
			47.50		362.58E+00
			48.00		361.86E+00
			48.50		361.11E+00
			49.00		360.34E+00
			49.50		359.54E+00
			50.00		358.73E+00
			50.50		357.91E+00
			51.00		357.10E+00
			51.50		356.29E+00
			52.00		355.50E+00
			52.50		354.71E+00
			53.00		353.94E+00
			53.50		353.17E+00
			54.00		352.41E+00
			54.50		351.66E+00
			55.00		350.90E+00
			55.50		350.13E+00
			56.00		349.39E+00
			56.50		348.67E+00
			57.00		347.97E+00
			57.50		347.29E+00
			58.00		346.61E+00
			58.50		345.91E+00
			59.00		345.18E+00
			59.50		344.41E+00
			60.00		343.60E+00
			60.50		342.75E+00
			61.00		341.91E+00
			61.50		341.07E+00
			62.00		340.26E+00
			62.50		339.47E+00
			63.00		338.68E+00
			63.50		337.89E+00
			64.00		337.09E+00
			64.50		336.28E+00
			65.00		335.48E+00
			65.50		334.69E+00
			66.00		333.91E+00
			66.50		333.15E+00
			67.00		332.38E+00
			67.50		331.61E+00
			68.00		330.82E+00
			68.50		330.01E+00
			69.00		329.22E+00
			69.50		328.43E+00
			70.00		327.67E+00
			70.50		326.93E+00
			71.00		326.17E+00
			71.50		325.39E+00
			72.00		324.58E+00
			72.50		323.73E+00
			73.00		322.86E+00
			73.50		321.98E+00
			74.00		321.09E+00
			74.50		320.21E+00
			75.00		319.33E+00
			75.50		318.44E+00
			76.00		317.57E+00
			76.50		316.71E+00
			77.00		315.90E+00
			77.50		315.13E+00
			78.00		314.35E+00
			78.50		313.56E+00
			79.00		312.73E+00
			79.50		311.87E+00
			80.00		311.02E+00
			80.50		310.18E+00
			81.00		309.36E+00
			81.50		308.55E+00
			82.00		307.72E+00
			82.50		306.89E+00
			83.00		306.02E+00
			83.50		305.13E+00
			84.00		304.23E+00
			84.50		303.32E+00
			85.00		302.43E+00
			85.50		301.56E+00
			86.00		300.72E+00
			86.50		299.92E+00
			87.00		299.10E+00
			87.50		298.26E+00
			88.00		297.34E+00
			88.50		296.35E+00
			89.00		295.33E+00
			89.50		294.28E+00
			90.00		293.26E+00
			90.50		292.28E+00
			91.00		291.26E+00
			91.50		290.21E+00
			92.00		289.02E+00
			92.50		287.70E+00
			93.00		286.23E+00
			93.50		284.64E+00
			94.00		282.57E+00
			94.50		280.03E+00
			95.00		277.14E+00
