BEGIN_SCAN_DATA
	FORMAT=CC-Export V1.9                  
	FILE_CREATION_DATE=30-Oct-2022 19:14:19
	LAST_MODIFIED=30-Oct-2022 19:14:19
	BEGIN_SCAN  1
		TASK_NAME=tba PDD Profiles
		PROGRAM=WaterTankScans
		COMMENT=Gemelli
		MEAS_DATE=08-Feb-2021 09:38:10
		LINAC=MRIdian
		MODALITY=X
		ISOCENTER=900.00
		INPLANE_AXIS=Y
		CROSSPLANE_AXIS=X
		DEPTH_AXIS=Depth
		INPLANE_AXIS_DIR=TARGET_GUN
		CROSSPLANE_AXIS_DIR=LEFT_RIGHT
		DEPTH_AXIS_DIR=UP_DOWN
		ENERGY=6.00
		NOMINAL_DMAX=15.00
		SSD=850.00
		SCD=450.00
		WEDGE_ANGLE=0.00
		FIELD_INPLANE=199.20
		FIELD_CROSSPLANE=199.20
		FIELD_TYPE=RECTANGULAR
		GANTRY=0.00
		GANTRY_UPRIGHT_POSITION=0
		GANTRY_ROTATION=CW
		COLL_ANGLE=0.00
		COLL_OFFSET_INPLANE=0.00
		COLL_OFFSET_CROSSPLANE=0.00
		SCAN_DEVICE=BeamScan
		SCAN_DEVICE_SETUP=BARA_LEFT_RIGHT
		ELECTROMETER=BeamScan
		RANGE_FIELD=LOW
		RANGE_REFERENCE=MEDIUM
		DETECTOR=THIMBLE_CHAMBER
		DETECTOR_RADIUS=2.40
		DETECTOR_NAME=A28MR
		DETECTOR_SN=-
		DETECTOR_CALIBRATION=588000000.00
		DETECTOR_IS_CALIBRATED=0
		DETECTOR_REFERENCE=THIMBLE_CHAMBER
		DETECTOR_REFERENCE_RADIUS=2.75
		DETECTOR_REFERENCE_NAME=A28MR
		DETECTOR_REFERENCE_SN=—
		DETECTOR_REFERENCE_IS_CALIBRATED=0
		DETECTOR_REFERENCE_CALIBRATION=303000000.00
		DETECTOR_HV=300.0
		DETECTOR_REFERENCE_HV=300.0
		DETECTOR_ORIENTATION=HORIZONTAL
		FILTER=FFF
		SCAN_SPEED_PROFILE=10.00
		SCAN_PROF_SPEED_DEP=DEPTH
		SCAN_SPEED_PDD=0.00
		SCAN_PDD_SPEED_DEP=ENERGY
		DETECTOR_TYPE=A28MR
		REF_FIELD_DEPTH=220.00
		REF_FIELD_DEFINED=ISOCENTER
		REF_FIELD_INPLANE=100.00
		REF_FIELD_CROSSPLANE=100.00
		REF_SCAN_POSITIONS=-85.00;-84.00;-83.00;-82.00;-81.00;-80.00;-79.00;-78.00;-77.00;-76.00;-75.00;-74.00;-73.00;-72.00;-71.00;-70.00;-69.00;-68.00;-67.00;-66.00;-65.00;-64.00;-63.00;-62.00;-61.00;-60.00;-59.00;-58.00;-57.00;-56.00;-55.00;-54.00;-53.00;-52.00;-51.00;-50.00;-49.00;-48.00;-47.00;-46.00;-45.00;-44.00;-43.00;-42.00;-41.00;-40.00;-39.00;-38.00;-37.00;-36.00;-35.00;-34.00;-33.00;-32.00;-31.00;-30.00;-29.00;-28.00;-27.00;-26.00;-25.00;-24.00;-23.00;-22.00;-21.00;-20.00;-19.00;-18.00;-17.00;-16.00;-15.00;-14.00;-13.00;-12.00;-11.00;-10.00;-9.00;-8.00;-7.00;-6.00;-5.00;-4.00;-3.00;-2.00;-1.00;0.00;1.00;2.00;3.00;4.00;5.00;6.00;7.00;8.00;9.00;10.00;11.00;12.00;13.00;14.00;15.00;16.00;17.00;18.00;19.00;20.00;21.00;22.00;23.00;24.00;25.00;26.00;27.00;28.00;29.00;30.00;31.00;32.00;33.00;34.00;35.00;36.00;37.00;38.00;39.00;40.00;41.00;42.00;43.00;44.00;45.00;46.00;47.00;48.00;49.00;50.00;51.00;52.00;53.00;54.00;55.00;56.00;57.00;58.00;59.00;60.00;61.00;62.00;63.00;64.00;65.00;66.00;67.00;68.00;69.00;70.00;71.00;72.00;73.00;74.00;75.00;76.00;77.00;78.00;79.00;80.00;81.00;82.00;83.00;84.00;85.00;
		REF_OVERSCAN_FACTOR=1.00
		SCAN_CURVETYPE=INPLANE_PROFILE
		SCAN_DEPTH=20.00
		SCAN_OFFAXIS_INPLANE=0.00
		SCAN_OFFAXIS_CROSSPLANE=0.00
		SCAN_ANGLE=0.00
		SCAN_DIAGONAL=NOT_DIAGONAL
		SCAN_DIRECTION=POSITIVE
		MEAS_MEDIUM=WATER
		MEAS_PRESET=MEAS_CONTINUOUS_REFERENCE_SCAN
		MEAS_TIME=0.100
		MEAS_UNIT=A.U.
		INCLINATION_ANGLE=0.00
		PRESSURE=1013.25
		TEMPERATURE=20.00
		NORM_TEMPERATURE=20.00
		CORRECTION_FACTOR=1.0000
		EXPECTED_MAX_DOSE_RATE=3.00
		EPOM_DEPTH_SHIFT=0.2
		EPOM_MODE=SHIFT_PROTOCOL
		CORRECTIONS=SMOOTHED_CORR;CAX_CORR;INTERPOLATED_CORR;
		BEGIN_DATA
			-150.50		8.4369E+00
			-150.00		8.4279E+00
			-149.50		8.4533E+00
			-149.00		8.5226E+00
			-148.50		8.6143E+00
			-148.00		8.7424E+00
			-147.50		8.8322E+00
			-147.00		8.8646E+00
			-146.50		8.9220E+00
			-146.00		9.0166E+00
			-145.50		9.0929E+00
			-145.00		9.1416E+00
			-144.50		9.1995E+00
			-144.00		9.2711E+00
			-143.50		9.3709E+00
			-143.00		9.5166E+00
			-142.50		9.6349E+00
			-142.00		9.7118E+00
			-141.50		9.7706E+00
			-141.00		9.8020E+00
			-140.50		9.8503E+00
			-140.00		9.9260E+00
			-139.50		10.017E+00
			-139.00		10.134E+00
			-138.50		10.242E+00
			-138.00		10.338E+00
			-137.50		10.444E+00
			-137.00		10.565E+00
			-136.50		10.677E+00
			-136.00		10.775E+00
			-135.50		10.846E+00
			-135.00		10.878E+00
			-134.50		10.968E+00
			-134.00		11.144E+00
			-133.50		11.298E+00
			-133.00		11.421E+00
			-132.50		11.536E+00
			-132.00		11.639E+00
			-131.50		11.754E+00
			-131.00		11.885E+00
			-130.50		12.011E+00
			-130.00		12.128E+00
			-129.50		12.260E+00
			-129.00		12.412E+00
			-128.50		12.551E+00
			-128.00		12.670E+00
			-127.50		12.815E+00
			-127.00		13.005E+00
			-126.50		13.156E+00
			-126.00		13.245E+00
			-125.50		13.373E+00
			-125.00		13.566E+00
			-124.50		13.743E+00
			-124.00		13.894E+00
			-123.50		14.068E+00
			-123.00		14.274E+00
			-122.50		14.449E+00
			-122.00		14.578E+00
			-121.50		14.756E+00
			-121.00		15.010E+00
			-120.50		15.250E+00
			-120.00		15.469E+00
			-119.50		15.660E+00
			-119.00		15.809E+00
			-118.50		16.015E+00
			-118.00		16.305E+00
			-117.50		16.586E+00
			-117.00		16.850E+00
			-116.50		17.093E+00
			-116.00		17.304E+00
			-115.50		17.536E+00
			-115.00		17.801E+00
			-114.50		18.100E+00
			-114.00		18.456E+00
			-113.50		18.779E+00
			-113.00		19.048E+00
			-112.50		19.357E+00
			-112.00		19.730E+00
			-111.50		20.100E+00
			-111.00		20.464E+00
			-110.50		20.860E+00
			-110.00		21.302E+00
			-109.50		21.791E+00
			-109.00		22.349E+00
			-108.50		22.896E+00
			-108.00		23.421E+00
			-107.50		24.022E+00
			-107.00		24.746E+00
			-106.50		25.538E+00
			-106.00		26.448E+00
			-105.50		27.475E+00
			-105.00		28.710E+00
			-104.50		30.236E+00
			-104.00		32.238E+00
			-103.50		34.756E+00
			-103.00		38.113E+00
			-102.50		42.603E+00
			-102.00		49.107E+00
			-101.50		56.865E+00
			-101.00		66.849E+00
			-100.50		77.904E+00
			-100.00		90.705E+00
			-99.50		104.36E+00
			-99.00		119.30E+00
			-98.50		134.46E+00
			-98.00		149.95E+00
			-97.50		165.30E+00
			-97.00		180.44E+00
			-96.50		195.22E+00
			-96.00		209.44E+00
			-95.50		222.84E+00
			-95.00		234.88E+00
			-94.50		245.97E+00
			-94.00		255.53E+00
			-93.50		264.24E+00
			-93.00		271.59E+00
			-92.50		278.25E+00
			-92.00		283.79E+00
			-91.50		288.73E+00
			-91.00		292.66E+00
			-90.50		296.34E+00
			-90.00		299.59E+00
			-89.50		302.56E+00
			-89.00		305.09E+00
			-88.50		307.36E+00
			-88.00		309.20E+00
			-87.50		310.91E+00
			-87.00		312.42E+00
			-86.50		313.85E+00
			-86.00		315.16E+00
			-85.50		316.43E+00
			-85.00		317.67E+00
			-84.50		318.87E+00
			-84.00		320.03E+00
			-83.50		321.16E+00
			-83.00		322.26E+00
			-82.50		323.36E+00
			-82.00		324.43E+00
			-81.50		325.50E+00
			-81.00		326.58E+00
			-80.50		327.66E+00
			-80.00		328.76E+00
			-79.50		329.83E+00
			-79.00		330.84E+00
			-78.50		331.82E+00
			-78.00		332.75E+00
			-77.50		333.70E+00
			-77.00		334.65E+00
			-76.50		335.60E+00
			-76.00		336.54E+00
			-75.50		337.45E+00
			-75.00		338.33E+00
			-74.50		339.21E+00
			-74.00		340.10E+00
			-73.50		340.98E+00
			-73.00		341.86E+00
			-72.50		342.74E+00
			-72.00		343.62E+00
			-71.50		344.49E+00
			-71.00		345.37E+00
			-70.50		346.24E+00
			-70.00		347.10E+00
			-69.50		347.97E+00
			-69.00		348.85E+00
			-68.50		349.72E+00
			-68.00		350.60E+00
			-67.50		351.47E+00
			-67.00		352.33E+00
			-66.50		353.18E+00
			-66.00		354.03E+00
			-65.50		354.87E+00
			-65.00		355.72E+00
			-64.50		356.57E+00
			-64.00		357.41E+00
			-63.50		358.25E+00
			-63.00		359.08E+00
			-62.50		359.91E+00
			-62.00		360.74E+00
			-61.50		361.58E+00
			-61.00		362.43E+00
			-60.50		363.29E+00
			-60.00		364.16E+00
			-59.50		365.05E+00
			-59.00		365.94E+00
			-58.50		366.84E+00
			-58.00		367.75E+00
			-57.50		368.66E+00
			-57.00		369.57E+00
			-56.50		370.48E+00
			-56.00		371.37E+00
			-55.50		372.26E+00
			-55.00		373.14E+00
			-54.50		374.01E+00
			-54.00		374.88E+00
			-53.50		375.74E+00
			-53.00		376.60E+00
			-52.50		377.46E+00
			-52.00		378.30E+00
			-51.50		379.14E+00
			-51.00		379.97E+00
			-50.50		380.79E+00
			-50.00		381.61E+00
			-49.50		382.43E+00
			-49.00		383.25E+00
			-48.50		384.08E+00
			-48.00		384.91E+00
			-47.50		385.74E+00
			-47.00		386.58E+00
			-46.50		387.42E+00
			-46.00		388.25E+00
			-45.50		389.06E+00
			-45.00		389.85E+00
			-44.50		390.63E+00
			-44.00		391.40E+00
			-43.50		392.19E+00
			-43.00		393.01E+00
			-42.50		393.85E+00
			-42.00		394.74E+00
			-41.50		395.63E+00
			-41.00		396.51E+00
			-40.50		397.38E+00
			-40.00		398.22E+00
			-39.50		399.04E+00
			-39.00		399.84E+00
			-38.50		400.64E+00
			-38.00		401.44E+00
			-37.50		402.25E+00
			-37.00		403.06E+00
			-36.50		403.87E+00
			-36.00		404.68E+00
			-35.50		405.50E+00
			-35.00		406.31E+00
			-34.50		407.12E+00
			-34.00		407.92E+00
			-33.50		408.71E+00
			-33.00		409.48E+00
			-32.50		410.24E+00
			-32.00		410.99E+00
			-31.50		411.73E+00
			-31.00		412.46E+00
			-30.50		413.19E+00
			-30.00		413.90E+00
			-29.50		414.61E+00
			-29.00		415.30E+00
			-28.50		415.98E+00
			-28.00		416.67E+00
			-27.50		417.34E+00
			-27.00		418.01E+00
			-26.50		418.67E+00
			-26.00		419.30E+00
			-25.50		419.92E+00
			-25.00		420.54E+00
			-24.50		421.18E+00
			-24.00		421.85E+00
			-23.50		422.54E+00
			-23.00		423.25E+00
			-22.50		423.95E+00
			-22.00		424.62E+00
			-21.50		425.25E+00
			-21.00		425.81E+00
			-20.50		426.35E+00
			-20.00		426.83E+00
			-19.50		427.31E+00
			-19.00		427.80E+00
			-18.50		428.29E+00
			-18.00		428.80E+00
			-17.50		429.32E+00
			-17.00		429.84E+00
			-16.50		430.36E+00
			-16.00		430.87E+00
			-15.50		431.36E+00
			-15.00		431.84E+00
			-14.50		432.31E+00
			-14.00		432.75E+00
			-13.50		433.18E+00
			-13.00		433.57E+00
			-12.50		433.94E+00
			-12.00		434.29E+00
			-11.50		434.63E+00
			-11.00		434.93E+00
			-10.50		435.22E+00
			-10.00		435.48E+00
			-9.50		435.71E+00
			-9.00		435.92E+00
			-8.50		436.11E+00
			-8.00		436.28E+00
			-7.50		436.44E+00
			-7.00		436.57E+00
			-6.50		436.70E+00
			-6.00		436.81E+00
			-5.50		436.92E+00
			-5.00		437.03E+00
			-4.50		437.14E+00
			-4.00		437.25E+00
			-3.50		437.34E+00
			-3.00		437.41E+00
			-2.50		437.46E+00
			-2.00		437.47E+00
			-1.50		437.44E+00
			-1.00		437.38E+00
			-0.50		437.27E+00
			0.00		437.11E+00
			0.50		436.91E+00
			1.00		436.64E+00
			1.50		436.35E+00
			2.00		436.02E+00
			2.50		435.70E+00
			3.00		435.40E+00
			3.50		435.13E+00
			4.00		434.91E+00
			4.50		434.71E+00
			5.00		434.54E+00
			5.50		434.38E+00
			6.00		434.24E+00
			6.50		434.08E+00
			7.00		433.92E+00
			7.50		433.74E+00
			8.00		433.53E+00
			8.50		433.31E+00
			9.00		433.07E+00
			9.50		432.83E+00
			10.00		432.59E+00
			10.50		432.35E+00
			11.00		432.12E+00
			11.50		431.88E+00
			12.00		431.63E+00
			12.50		431.37E+00
			13.00		431.08E+00
			13.50		430.78E+00
			14.00		430.45E+00
			14.50		430.13E+00
			15.00		429.79E+00
			15.50		429.46E+00
			16.00		429.14E+00
			16.50		428.81E+00
			17.00		428.48E+00
			17.50		428.12E+00
			18.00		427.71E+00
			18.50		427.27E+00
			19.00		426.78E+00
			19.50		426.27E+00
			20.00		425.76E+00
			20.50		425.25E+00
			21.00		424.77E+00
			21.50		424.29E+00
			22.00		423.82E+00
			22.50		423.35E+00
			23.00		422.87E+00
			23.50		422.38E+00
			24.00		421.88E+00
			24.50		421.38E+00
			25.00		420.86E+00
			25.50		420.32E+00
			26.00		419.76E+00
			26.50		419.18E+00
			27.00		418.59E+00
			27.50		418.00E+00
			28.00		417.41E+00
			28.50		416.83E+00
			29.00		416.25E+00
			29.50		415.67E+00
			30.00		415.08E+00
			30.50		414.50E+00
			31.00		413.92E+00
			31.50		413.34E+00
			32.00		412.75E+00
			32.50		412.15E+00
			33.00		411.51E+00
			33.50		410.84E+00
			34.00		410.14E+00
			34.50		409.42E+00
			35.00		408.69E+00
			35.50		407.95E+00
			36.00		407.23E+00
			36.50		406.51E+00
			37.00		405.79E+00
			37.50		405.07E+00
			38.00		404.36E+00
			38.50		403.64E+00
			39.00		402.93E+00
			39.50		402.23E+00
			40.00		401.53E+00
			40.50		400.83E+00
			41.00		400.11E+00
			41.50		399.38E+00
			42.00		398.62E+00
			42.50		397.84E+00
			43.00		397.05E+00
			43.50		396.27E+00
			44.00		395.50E+00
			44.50		394.74E+00
			45.00		393.98E+00
			45.50		393.21E+00
			46.00		392.40E+00
			46.50		391.57E+00
			47.00		390.69E+00
			47.50		389.82E+00
			48.00		388.93E+00
			48.50		388.08E+00
			49.00		387.25E+00
			49.50		386.45E+00
			50.00		385.67E+00
			50.50		384.88E+00
			51.00		384.07E+00
			51.50		383.24E+00
			52.00		382.36E+00
			52.50		381.47E+00
			53.00		380.55E+00
			53.50		379.63E+00
			54.00		378.71E+00
			54.50		377.80E+00
			55.00		376.90E+00
			55.50		376.00E+00
			56.00		375.13E+00
			56.50		374.26E+00
			57.00		373.42E+00
			57.50		372.58E+00
			58.00		371.76E+00
			58.50		370.96E+00
			59.00		370.19E+00
			59.50		369.43E+00
			60.00		368.69E+00
			60.50		367.93E+00
			61.00		367.14E+00
			61.50		366.32E+00
			62.00		365.44E+00
			62.50		364.55E+00
			63.00		363.64E+00
			63.50		362.73E+00
			64.00		361.84E+00
			64.50		360.97E+00
			65.00		360.14E+00
			65.50		359.33E+00
			66.00		358.55E+00
			66.50		357.76E+00
			67.00		356.97E+00
			67.50		356.19E+00
			68.00		355.40E+00
			68.50		354.63E+00
			69.00		353.87E+00
			69.50		353.10E+00
			70.00		352.31E+00
			70.50		351.52E+00
			71.00		350.72E+00
			71.50		349.95E+00
			72.00		349.20E+00
			72.50		348.44E+00
			73.00		347.65E+00
			73.50		346.83E+00
			74.00		345.95E+00
			74.50		345.09E+00
			75.00		344.26E+00
			75.50		343.45E+00
			76.00		342.66E+00
			76.50		341.83E+00
			77.00		340.93E+00
			77.50		340.02E+00
			78.00		339.12E+00
			78.50		338.30E+00
			79.00		337.60E+00
			79.50		336.94E+00
			80.00		336.32E+00
			80.50		335.66E+00
			81.00		334.93E+00
			81.50		334.18E+00
			82.00		333.38E+00
			82.50		332.57E+00
			83.00		331.74E+00
			83.50		330.89E+00
			84.00		330.01E+00
			84.50		329.10E+00
			85.00		328.16E+00
			85.50		327.17E+00
			86.00		326.13E+00
			86.50		325.03E+00
			87.00		323.85E+00
			87.50		322.64E+00
			88.00		321.38E+00
			88.50		320.02E+00
			89.00		318.50E+00
			89.50		316.79E+00
			90.00		314.73E+00
			90.50		312.42E+00
			91.00		309.66E+00
			91.50		305.96E+00
			92.00		300.73E+00
			92.50		294.37E+00
			93.00		286.32E+00
			93.50		276.97E+00
			94.00		265.49E+00
			94.50		252.98E+00
			95.00		238.81E+00
			95.50		224.14E+00
			96.00		208.75E+00
			96.50		192.96E+00
			97.00		176.50E+00
			97.50		160.33E+00
			98.00		144.63E+00
			98.50		129.86E+00
			99.00		116.61E+00
			99.50		104.14E+00
			100.00		92.927E+00
			100.50		82.679E+00
			101.00		74.002E+00
			101.50		66.072E+00
			102.00		59.359E+00
			102.50		53.256E+00
			103.00		48.147E+00
			103.50		43.621E+00
			104.00		40.048E+00
			104.50		36.830E+00
			105.00		34.146E+00
			105.50		31.819E+00
			106.00		30.076E+00
			106.50		28.568E+00
			107.00		27.413E+00
			107.50		26.389E+00
			108.00		25.579E+00
			108.50		24.792E+00
			109.00		24.044E+00
			109.50		23.419E+00
			110.00		22.992E+00
			110.50		22.559E+00
			111.00		22.117E+00
			111.50		21.678E+00
			112.00		21.243E+00
			112.50		20.823E+00
			113.00		20.427E+00
			113.50		20.052E+00
			114.00		19.711E+00
			114.50		19.389E+00
			115.00		19.101E+00
			115.50		18.814E+00
			116.00		18.530E+00
			116.50		18.254E+00
			117.00		17.991E+00
			117.50		17.755E+00
			118.00		17.564E+00
			118.50		17.335E+00
			119.00		17.044E+00
			119.50		16.792E+00
			120.00		16.604E+00
			120.50		16.389E+00
			121.00		16.133E+00
			121.50		15.868E+00
			122.00		15.588E+00
			122.50		15.377E+00
			123.00		15.281E+00
			123.50		15.105E+00
			124.00		14.801E+00
			124.50		14.525E+00
			125.00		14.300E+00
			125.50		14.106E+00
			126.00		13.962E+00
			126.50		13.821E+00
			127.00		13.685E+00
			127.50		13.534E+00
			128.00		13.356E+00
			128.50		13.189E+00
			129.00		13.036E+00
			129.50		12.876E+00
			130.00		12.705E+00
			130.50		12.554E+00
			131.00		12.433E+00
			131.50		12.320E+00
			132.00		12.219E+00
			132.50		12.070E+00
			133.00		11.851E+00
			133.50		11.671E+00
			134.00		11.552E+00
			134.50		11.450E+00
			135.00		11.374E+00
			135.50		11.298E+00
			136.00		11.223E+00
			136.50		11.099E+00
			137.00		10.898E+00
			137.50		10.714E+00
			138.00		10.560E+00
			138.50		10.461E+00
			139.00		10.451E+00
			139.50		10.366E+00
			140.00		10.165E+00
			140.50		9.9985E+00
			141.00		9.8806E+00
			141.50		9.7981E+00
			142.00		9.7687E+00
			142.50		9.6974E+00
			143.00		9.5635E+00
			143.50		9.4057E+00
			144.00		9.2120E+00
			144.50		9.0912E+00
			145.00		9.0801E+00
			145.50		9.0266E+00
			146.00		8.9097E+00
			146.50		8.8117E+00
			147.00		8.7420E+00
			147.50		8.6816E+00
			148.00		8.6351E+00
			148.50		8.5599E+00
			149.00		8.4377E+00
		END_DATA
	END_SCAN  1
	BEGIN_SCAN  2
		TASK_NAME=tba PDD Profiles
		PROGRAM=WaterTankScans
		COMMENT=Gemelli
		MEAS_DATE=08-Feb-2021 09:38:10
		LINAC=MRIdian
		MODALITY=X
		ISOCENTER=900.00
		INPLANE_AXIS=Y
		CROSSPLANE_AXIS=X
		DEPTH_AXIS=Depth
		INPLANE_AXIS_DIR=TARGET_GUN
		CROSSPLANE_AXIS_DIR=LEFT_RIGHT
		DEPTH_AXIS_DIR=UP_DOWN
		ENERGY=6.00
		NOMINAL_DMAX=15.00
		SSD=850.00
		SCD=450.00
		WEDGE_ANGLE=0.00
		FIELD_INPLANE=199.20
		FIELD_CROSSPLANE=199.20
		FIELD_TYPE=RECTANGULAR
		GANTRY=0.00
		GANTRY_UPRIGHT_POSITION=0
		GANTRY_ROTATION=CW
		COLL_ANGLE=0.00
		COLL_OFFSET_INPLANE=0.00
		COLL_OFFSET_CROSSPLANE=0.00
		SCAN_DEVICE=BeamScan
		SCAN_DEVICE_SETUP=BARA_LEFT_RIGHT
		ELECTROMETER=BeamScan
		RANGE_FIELD=LOW
		RANGE_REFERENCE=MEDIUM
		DETECTOR=THIMBLE_CHAMBER
		DETECTOR_RADIUS=2.40
		DETECTOR_NAME=A28MR
		DETECTOR_SN=-
		DETECTOR_CALIBRATION=588000000.00
		DETECTOR_IS_CALIBRATED=0
		DETECTOR_REFERENCE=THIMBLE_CHAMBER
		DETECTOR_REFERENCE_RADIUS=2.75
		DETECTOR_REFERENCE_NAME=A28MR
		DETECTOR_REFERENCE_SN=—
		DETECTOR_REFERENCE_IS_CALIBRATED=0
		DETECTOR_REFERENCE_CALIBRATION=303000000.00
		DETECTOR_HV=300.0
		DETECTOR_REFERENCE_HV=300.0
		DETECTOR_ORIENTATION=HORIZONTAL
		FILTER=FFF
		SCAN_SPEED_PROFILE=10.00
		SCAN_PROF_SPEED_DEP=DEPTH
		SCAN_SPEED_PDD=0.00
		SCAN_PDD_SPEED_DEP=ENERGY
		DETECTOR_TYPE=A28MR
		REF_FIELD_DEPTH=220.00
		REF_FIELD_DEFINED=ISOCENTER
		REF_FIELD_INPLANE=100.00
		REF_FIELD_CROSSPLANE=100.00
		REF_SCAN_POSITIONS=-85.00;-84.00;-83.00;-82.00;-81.00;-80.00;-79.00;-78.00;-77.00;-76.00;-75.00;-74.00;-73.00;-72.00;-71.00;-70.00;-69.00;-68.00;-67.00;-66.00;-65.00;-64.00;-63.00;-62.00;-61.00;-60.00;-59.00;-58.00;-57.00;-56.00;-55.00;-54.00;-53.00;-52.00;-51.00;-50.00;-49.00;-48.00;-47.00;-46.00;-45.00;-44.00;-43.00;-42.00;-41.00;-40.00;-39.00;-38.00;-37.00;-36.00;-35.00;-34.00;-33.00;-32.00;-31.00;-30.00;-29.00;-28.00;-27.00;-26.00;-25.00;-24.00;-23.00;-22.00;-21.00;-20.00;-19.00;-18.00;-17.00;-16.00;-15.00;-14.00;-13.00;-12.00;-11.00;-10.00;-9.00;-8.00;-7.00;-6.00;-5.00;-4.00;-3.00;-2.00;-1.00;0.00;1.00;2.00;3.00;4.00;5.00;6.00;7.00;8.00;9.00;10.00;11.00;12.00;13.00;14.00;15.00;16.00;17.00;18.00;19.00;20.00;21.00;22.00;23.00;24.00;25.00;26.00;27.00;28.00;29.00;30.00;31.00;32.00;33.00;34.00;35.00;36.00;37.00;38.00;39.00;40.00;41.00;42.00;43.00;44.00;45.00;46.00;47.00;48.00;49.00;50.00;51.00;52.00;53.00;54.00;55.00;56.00;57.00;58.00;59.00;60.00;61.00;62.00;63.00;64.00;65.00;66.00;67.00;68.00;69.00;70.00;71.00;72.00;73.00;74.00;75.00;76.00;77.00;78.00;79.00;80.00;81.00;82.00;83.00;84.00;85.00;
		REF_OVERSCAN_FACTOR=1.00
		SCAN_CURVETYPE=INPLANE_PROFILE
		SCAN_DEPTH=55.00
		SCAN_OFFAXIS_INPLANE=0.00
		SCAN_OFFAXIS_CROSSPLANE=0.00
		SCAN_ANGLE=0.00
		SCAN_DIAGONAL=NOT_DIAGONAL
		SCAN_DIRECTION=POSITIVE
		MEAS_MEDIUM=WATER
		MEAS_PRESET=MEAS_CONTINUOUS_REFERENCE_SCAN
		MEAS_TIME=0.100
		MEAS_UNIT=A.U.
		INCLINATION_ANGLE=0.00
		PRESSURE=1013.25
		TEMPERATURE=20.00
		NORM_TEMPERATURE=20.00
		CORRECTION_FACTOR=1.0000
		EXPECTED_MAX_DOSE_RATE=3.00
		EPOM_DEPTH_SHIFT=0.2
		EPOM_MODE=SHIFT_PROTOCOL
		CORRECTIONS=SMOOTHED_CORR;CAX_CORR;INTERPOLATED_CORR;
		BEGIN_DATA
			-150.00		10.849E+00
			-149.50		10.864E+00
			-149.00		10.889E+00
			-148.50		10.913E+00
			-148.00		11.140E+00
			-147.50		11.385E+00
			-147.00		11.465E+00
			-146.50		11.535E+00
			-146.00		11.605E+00
			-145.50		11.676E+00
			-145.00		11.817E+00
			-144.50		11.963E+00
			-144.00		12.088E+00
			-143.50		12.211E+00
			-143.00		12.271E+00
			-142.50		12.328E+00
			-142.00		12.458E+00
			-141.50		12.592E+00
			-141.00		12.761E+00
			-140.50		12.932E+00
			-140.00		13.110E+00
			-139.50		13.288E+00
			-139.00		13.387E+00
			-138.50		13.480E+00
			-138.00		13.593E+00
			-137.50		13.706E+00
			-137.00		13.879E+00
			-136.50		14.058E+00
			-136.00		14.158E+00
			-135.50		14.253E+00
			-135.00		14.434E+00
			-134.50		14.621E+00
			-134.00		14.836E+00
			-133.50		15.052E+00
			-133.00		15.245E+00
			-132.50		15.437E+00
			-132.00		15.576E+00
			-131.50		15.712E+00
			-131.00		15.978E+00
			-130.50		16.252E+00
			-130.00		16.423E+00
			-129.50		16.588E+00
			-129.00		16.827E+00
			-128.50		17.071E+00
			-128.00		17.244E+00
			-127.50		17.411E+00
			-127.00		17.666E+00
			-126.50		17.929E+00
			-126.00		18.209E+00
			-125.50		18.490E+00
			-125.00		18.674E+00
			-124.50		18.850E+00
			-124.00		19.035E+00
			-123.50		19.221E+00
			-123.00		19.606E+00
			-122.50		20.004E+00
			-122.00		20.281E+00
			-121.50		20.551E+00
			-121.00		20.860E+00
			-120.50		21.172E+00
			-120.00		21.490E+00
			-119.50		21.808E+00
			-119.00		22.228E+00
			-118.50		22.655E+00
			-118.00		22.990E+00
			-117.50		23.320E+00
			-117.00		23.605E+00
			-116.50		23.886E+00
			-116.00		24.490E+00
			-115.50		25.121E+00
			-115.00		25.616E+00
			-114.50		26.099E+00
			-114.00		26.588E+00
			-113.50		27.078E+00
			-113.00		27.602E+00
			-112.50		28.129E+00
			-112.00		28.698E+00
			-111.50		29.272E+00
			-111.00		30.045E+00
			-110.50		30.832E+00
			-110.00		31.841E+00
			-109.50		32.864E+00
			-109.00		34.071E+00
			-108.50		35.294E+00
			-108.00		37.188E+00
			-107.50		39.141E+00
			-107.00		42.544E+00
			-106.50		46.073E+00
			-106.00		51.730E+00
			-105.50		57.572E+00
			-105.00		65.892E+00
			-104.50		74.427E+00
			-104.00		84.500E+00
			-103.50		94.706E+00
			-103.00		105.98E+00
			-102.50		117.34E+00
			-102.00		129.16E+00
			-101.50		141.03E+00
			-101.00		152.40E+00
			-100.50		163.73E+00
			-100.00		173.91E+00
			-99.50		184.00E+00
			-99.00		192.91E+00
			-98.50		201.75E+00
			-98.00		209.11E+00
			-97.50		216.37E+00
			-97.00		221.98E+00
			-96.50		227.48E+00
			-96.00		232.27E+00
			-95.50		236.99E+00
			-95.00		240.31E+00
			-94.50		243.51E+00
			-94.00		246.25E+00
			-93.50		248.94E+00
			-93.00		250.99E+00
			-92.50		252.98E+00
			-92.00		254.73E+00
			-91.50		256.45E+00
			-91.00		257.71E+00
			-90.50		258.93E+00
			-90.00		260.27E+00
			-89.50		261.62E+00
			-89.00		262.81E+00
			-88.50		263.98E+00
			-88.00		264.99E+00
			-87.50		265.99E+00
			-87.00		266.95E+00
			-86.50		267.91E+00
			-86.00		268.85E+00
			-85.50		269.79E+00
			-85.00		270.75E+00
			-84.50		271.71E+00
			-84.00		272.66E+00
			-83.50		273.61E+00
			-83.00		274.52E+00
			-82.50		275.43E+00
			-82.00		276.32E+00
			-81.50		277.20E+00
			-81.00		278.07E+00
			-80.50		278.93E+00
			-80.00		279.78E+00
			-79.50		280.63E+00
			-79.00		281.45E+00
			-78.50		282.27E+00
			-78.00		283.05E+00
			-77.50		283.83E+00
			-77.00		284.58E+00
			-76.50		285.34E+00
			-76.00		286.13E+00
			-75.50		286.92E+00
			-75.00		287.77E+00
			-74.50		288.62E+00
			-74.00		289.46E+00
			-73.50		290.30E+00
			-73.00		291.11E+00
			-72.50		291.91E+00
			-72.00		292.70E+00
			-71.50		293.50E+00
			-71.00		294.30E+00
			-70.50		295.10E+00
			-70.00		295.86E+00
			-69.50		296.61E+00
			-69.00		297.33E+00
			-68.50		298.05E+00
			-68.00		298.76E+00
			-67.50		299.47E+00
			-67.00		300.19E+00
			-66.50		300.90E+00
			-66.00		301.61E+00
			-65.50		302.33E+00
			-65.00		303.06E+00
			-64.50		303.79E+00
			-64.00		304.54E+00
			-63.50		305.29E+00
			-63.00		306.01E+00
			-62.50		306.73E+00
			-62.00		307.44E+00
			-61.50		308.14E+00
			-61.00		308.89E+00
			-60.50		309.65E+00
			-60.00		310.46E+00
			-59.50		311.28E+00
			-59.00		312.09E+00
			-58.50		312.91E+00
			-58.00		313.68E+00
			-57.50		314.44E+00
			-57.00		315.19E+00
			-56.50		315.93E+00
			-56.00		316.67E+00
			-55.50		317.42E+00
			-55.00		318.13E+00
			-54.50		318.84E+00
			-54.00		319.48E+00
			-53.50		320.12E+00
			-53.00		320.75E+00
			-52.50		321.37E+00
			-52.00		322.04E+00
			-51.50		322.71E+00
			-51.00		323.42E+00
			-50.50		324.13E+00
			-50.00		324.85E+00
			-49.50		325.57E+00
			-49.00		326.30E+00
			-48.50		327.04E+00
			-48.00		327.76E+00
			-47.50		328.47E+00
			-47.00		329.10E+00
			-46.50		329.73E+00
			-46.00		330.30E+00
			-45.50		330.86E+00
			-45.00		331.46E+00
			-44.50		332.06E+00
			-44.00		332.72E+00
			-43.50		333.39E+00
			-43.00		334.08E+00
			-42.50		334.76E+00
			-42.00		335.44E+00
			-41.50		336.11E+00
			-41.00		336.78E+00
			-40.50		337.45E+00
			-40.00		338.13E+00
			-39.50		338.82E+00
			-39.00		339.54E+00
			-38.50		340.27E+00
			-38.00		341.01E+00
			-37.50		341.75E+00
			-37.00		342.46E+00
			-36.50		343.17E+00
			-36.00		343.82E+00
			-35.50		344.46E+00
			-35.00		345.06E+00
			-34.50		345.65E+00
			-34.00		346.23E+00
			-33.50		346.81E+00
			-33.00		347.40E+00
			-32.50		347.99E+00
			-32.00		348.58E+00
			-31.50		349.17E+00
			-31.00		349.75E+00
			-30.50		350.32E+00
			-30.00		350.88E+00
			-29.50		351.43E+00
			-29.00		351.98E+00
			-28.50		352.53E+00
			-28.00		353.06E+00
			-27.50		353.60E+00
			-27.00		354.13E+00
			-26.50		354.66E+00
			-26.00		355.22E+00
			-25.50		355.78E+00
			-25.00		356.36E+00
			-24.50		356.94E+00
			-24.00		357.48E+00
			-23.50		358.01E+00
			-23.00		358.50E+00
			-22.50		358.98E+00
			-22.00		359.46E+00
			-21.50		359.94E+00
			-21.00		360.43E+00
			-20.50		360.93E+00
			-20.00		361.38E+00
			-19.50		361.82E+00
			-19.00		362.21E+00
			-18.50		362.60E+00
			-18.00		362.97E+00
			-17.50		363.35E+00
			-17.00		363.71E+00
			-16.50		364.07E+00
			-16.00		364.38E+00
			-15.50		364.69E+00
			-15.00		364.97E+00
			-14.50		365.25E+00
			-14.00		365.55E+00
			-13.50		365.85E+00
			-13.00		366.16E+00
			-12.50		366.47E+00
			-12.00		366.76E+00
			-11.50		367.06E+00
			-11.00		367.35E+00
			-10.50		367.63E+00
			-10.00		367.92E+00
			-9.50		368.21E+00
			-9.00		368.47E+00
			-8.50		368.73E+00
			-8.00		368.92E+00
			-7.50		369.11E+00
			-7.00		369.23E+00
			-6.50		369.34E+00
			-6.00		369.40E+00
			-5.50		369.45E+00
			-5.00		369.44E+00
			-4.50		369.43E+00
			-4.00		369.39E+00
			-3.50		369.35E+00
			-3.00		369.31E+00
			-2.50		369.27E+00
			-2.00		369.22E+00
			-1.50		369.17E+00
			-1.00		369.12E+00
			-0.50		369.07E+00
			0.00		368.99E+00
			0.50		368.90E+00
			1.00		368.79E+00
			1.50		368.66E+00
			2.00		368.55E+00
			2.50		368.44E+00
			3.00		368.33E+00
			3.50		368.22E+00
			4.00		368.08E+00
			4.50		367.94E+00
			5.00		367.76E+00
			5.50		367.58E+00
			6.00		367.42E+00
			6.50		367.25E+00
			7.00		367.08E+00
			7.50		366.91E+00
			8.00		366.70E+00
			8.50		366.48E+00
			9.00		366.23E+00
			9.50		365.98E+00
			10.00		365.77E+00
			10.50		365.57E+00
			11.00		365.43E+00
			11.50		365.30E+00
			12.00		365.14E+00
			12.50		364.98E+00
			13.00		364.71E+00
			13.50		364.42E+00
			14.00		364.09E+00
			14.50		363.75E+00
			15.00		363.46E+00
			15.50		363.17E+00
			16.00		362.92E+00
			16.50		362.66E+00
			17.00		362.38E+00
			17.50		362.10E+00
			18.00		361.77E+00
			18.50		361.43E+00
			19.00		361.06E+00
			19.50		360.69E+00
			20.00		360.29E+00
			20.50		359.88E+00
			21.00		359.43E+00
			21.50		358.96E+00
			22.00		358.50E+00
			22.50		358.03E+00
			23.00		357.61E+00
			23.50		357.21E+00
			24.00		356.85E+00
			24.50		356.50E+00
			25.00		356.15E+00
			25.50		355.79E+00
			26.00		355.41E+00
			26.50		355.03E+00
			27.00		354.63E+00
			27.50		354.23E+00
			28.00		353.81E+00
			28.50		353.39E+00
			29.00		352.95E+00
			29.50		352.50E+00
			30.00		352.02E+00
			30.50		351.53E+00
			31.00		351.00E+00
			31.50		350.48E+00
			32.00		349.95E+00
			32.50		349.42E+00
			33.00		348.90E+00
			33.50		348.38E+00
			34.00		347.84E+00
			34.50		347.31E+00
			35.00		346.75E+00
			35.50		346.20E+00
			36.00		345.65E+00
			36.50		345.10E+00
			37.00		344.58E+00
			37.50		344.06E+00
			38.00		343.54E+00
			38.50		343.03E+00
			39.00		342.46E+00
			39.50		341.88E+00
			40.00		341.25E+00
			40.50		340.62E+00
			41.00		339.95E+00
			41.50		339.29E+00
			42.00		338.63E+00
			42.50		337.98E+00
			43.00		337.36E+00
			43.50		336.74E+00
			44.00		336.13E+00
			44.50		335.51E+00
			45.00		334.85E+00
			45.50		334.19E+00
			46.00		333.49E+00
			46.50		332.80E+00
			47.00		332.12E+00
			47.50		331.44E+00
			48.00		330.75E+00
			48.50		330.07E+00
			49.00		329.37E+00
			49.50		328.68E+00
			50.00		327.98E+00
			50.50		327.29E+00
			51.00		326.61E+00
			51.50		325.92E+00
			52.00		325.25E+00
			52.50		324.58E+00
			53.00		323.92E+00
			53.50		323.26E+00
			54.00		322.60E+00
			54.50		321.93E+00
			55.00		321.24E+00
			55.50		320.54E+00
			56.00		319.81E+00
			56.50		319.08E+00
			57.00		318.33E+00
			57.50		317.59E+00
			58.00		316.83E+00
			58.50		316.07E+00
			59.00		315.31E+00
			59.50		314.55E+00
			60.00		313.84E+00
			60.50		313.12E+00
			61.00		312.47E+00
			61.50		311.82E+00
			62.00		311.16E+00
			62.50		310.51E+00
			63.00		309.78E+00
