BEGIN_SCAN_DATA
	FORMAT=CC-Export V1.9                  
	FILE_CREATION_DATE=30-Oct-2022 19:11:32
	LAST_MODIFIED=30-Oct-2022 19:11:32
	BEGIN_SCAN  1
		TASK_NAME=tba PDD Profiles
		PROGRAM=WaterTankScans
		COMMENT=Gemelli
		MEAS_DATE=08-Feb-2021 09:38:10
		LINAC=MRIdian
		MODALITY=X
		ISOCENTER=900.00
		INPLANE_AXIS=Y
		CROSSPLANE_AXIS=X
		DEPTH_AXIS=Depth
		INPLANE_AXIS_DIR=TARGET_GUN
		CROSSPLANE_AXIS_DIR=LEFT_RIGHT
		DEPTH_AXIS_DIR=UP_DOWN
		ENERGY=6.00
		NOMINAL_DMAX=15.00
		SSD=850.00
		SCD=450.00
		WEDGE_ANGLE=0.00
		FIELD_INPLANE=99.60
		FIELD_CROSSPLANE=99.60
		FIELD_TYPE=RECTANGULAR
		GANTRY=0.00
		GANTRY_UPRIGHT_POSITION=0
		GANTRY_ROTATION=CW
		COLL_ANGLE=0.00
		COLL_OFFSET_INPLANE=0.00
		COLL_OFFSET_CROSSPLANE=0.00
		SCAN_DEVICE=BeamScan
		SCAN_DEVICE_SETUP=BARA_LEFT_RIGHT
		ELECTROMETER=BeamScan
		RANGE_FIELD=LOW
		RANGE_REFERENCE=MEDIUM
		DETECTOR=THIMBLE_CHAMBER
		DETECTOR_RADIUS=2.40
		DETECTOR_NAME=A28MR
		DETECTOR_SN=-
		DETECTOR_CALIBRATION=588000000.00
		DETECTOR_IS_CALIBRATED=0
		DETECTOR_REFERENCE=THIMBLE_CHAMBER
		DETECTOR_REFERENCE_RADIUS=2.75
		DETECTOR_REFERENCE_NAME=A28MR
		DETECTOR_REFERENCE_SN=—
		DETECTOR_REFERENCE_IS_CALIBRATED=0
		DETECTOR_REFERENCE_CALIBRATION=303000000.00
		DETECTOR_HV=300.0
		DETECTOR_REFERENCE_HV=300.0
		DETECTOR_ORIENTATION=HORIZONTAL
		FILTER=FFF
		SCAN_SPEED_PROFILE=10.00
		SCAN_PROF_SPEED_DEP=DEPTH
		SCAN_SPEED_PDD=0.00
		SCAN_PDD_SPEED_DEP=ENERGY
		DETECTOR_TYPE=A28MR
		REF_FIELD_DEPTH=220.00
		REF_FIELD_DEFINED=ISOCENTER
		REF_FIELD_INPLANE=100.00
		REF_FIELD_CROSSPLANE=100.00
		REF_SCAN_POSITIONS=-85.00;-84.00;-83.00;-82.00;-81.00;-80.00;-79.00;-78.00;-77.00;-76.00;-75.00;-74.00;-73.00;-72.00;-71.00;-70.00;-69.00;-68.00;-67.00;-66.00;-65.00;-64.00;-63.00;-62.00;-61.00;-60.00;-59.00;-58.00;-57.00;-56.00;-55.00;-54.00;-53.00;-52.00;-51.00;-50.00;-49.00;-48.00;-47.00;-46.00;-45.00;-44.00;-43.00;-42.00;-41.00;-40.00;-39.00;-38.00;-37.00;-36.00;-35.00;-34.00;-33.00;-32.00;-31.00;-30.00;-29.00;-28.00;-27.00;-26.00;-25.00;-24.00;-23.00;-22.00;-21.00;-20.00;-19.00;-18.00;-17.00;-16.00;-15.00;-14.00;-13.00;-12.00;-11.00;-10.00;-9.00;-8.00;-7.00;-6.00;-5.00;-4.00;-3.00;-2.00;-1.00;0.00;1.00;2.00;3.00;4.00;5.00;6.00;7.00;8.00;9.00;10.00;11.00;12.00;13.00;14.00;15.00;16.00;17.00;18.00;19.00;20.00;21.00;22.00;23.00;24.00;25.00;26.00;27.00;28.00;29.00;30.00;31.00;32.00;33.00;34.00;35.00;36.00;37.00;38.00;39.00;40.00;41.00;42.00;43.00;44.00;45.00;46.00;47.00;48.00;49.00;50.00;51.00;52.00;53.00;54.00;55.00;56.00;57.00;58.00;59.00;60.00;61.00;62.00;63.00;64.00;65.00;66.00;67.00;68.00;69.00;70.00;71.00;72.00;73.00;74.00;75.00;76.00;77.00;78.00;79.00;80.00;81.00;82.00;83.00;84.00;85.00;
		REF_OVERSCAN_FACTOR=1.00
		SCAN_CURVETYPE=INPLANE_PROFILE
		SCAN_DEPTH=20.00
		SCAN_OFFAXIS_INPLANE=0.00
		SCAN_OFFAXIS_CROSSPLANE=0.00
		SCAN_ANGLE=0.00
		SCAN_DIAGONAL=NOT_DIAGONAL
		SCAN_DIRECTION=POSITIVE
		MEAS_MEDIUM=WATER
		MEAS_PRESET=MEAS_CONTINUOUS_REFERENCE_SCAN
		MEAS_TIME=0.100
		MEAS_UNIT=A.U.
		INCLINATION_ANGLE=0.00
		PRESSURE=1013.25
		TEMPERATURE=20.00
		NORM_TEMPERATURE=20.00
		CORRECTION_FACTOR=1.0000
		EXPECTED_MAX_DOSE_RATE=3.00
		EPOM_DEPTH_SHIFT=0.2
		EPOM_MODE=SHIFT_PROTOCOL
		CORRECTIONS=MODIFIED_CORR;SMOOTHED_CORR;CAX_CORR;INTERPOLATED_CORR;
		BEGIN_DATA
			-90.00		5.5576E+00
			-89.50		5.5576E+00
			-89.00		5.5576E+00
			-88.50		5.5576E+00
			-88.00		5.7243E+00
			-87.50		5.9380E+00
			-87.00		5.9851E+00
			-86.50		5.9851E+00
			-86.00		6.1491E+00
			-85.50		6.3651E+00
			-85.00		6.4126E+00
			-84.50		6.4126E+00
			-84.00		6.4126E+00
			-83.50		6.4126E+00
			-83.00		6.5734E+00
			-82.50		6.7850E+00
			-82.00		6.8401E+00
			-81.50		6.8401E+00
			-81.00		7.0025E+00
			-80.50		7.2163E+00
			-80.00		7.2676E+00
			-79.50		7.2676E+00
			-79.00		7.4284E+00
			-78.50		7.6400E+00
			-78.00		7.6951E+00
			-77.50		7.6951E+00
			-77.00		7.8575E+00
			-76.50		8.0713E+00
			-76.00		8.1226E+00
			-75.50		8.1226E+00
			-75.00		8.2850E+00
			-74.50		8.4988E+00
			-74.00		8.7142E+00
			-73.50		8.9301E+00
			-73.00		8.9776E+00
			-72.50		8.9776E+00
			-72.00		9.1384E+00
			-71.50		9.3501E+00
			-71.00		9.5649E+00
			-70.50		9.7808E+00
			-70.00		9.9950E+00
			-69.50		10.209E+00
			-69.00		10.421E+00
			-68.50		10.633E+00
			-68.00		10.846E+00
			-67.50		11.060E+00
			-67.00		11.273E+00
			-66.50		11.487E+00
			-66.00		11.862E+00
			-65.50		12.294E+00
			-65.00		12.560E+00
			-64.50		12.774E+00
			-64.00		13.150E+00
			-63.50		13.578E+00
			-63.00		14.008E+00
			-62.50		14.440E+00
			-62.00		14.872E+00
			-61.50		15.304E+00
			-61.00		15.729E+00
			-60.50		16.152E+00
			-60.00		16.740E+00
			-59.50		17.375E+00
			-59.00		18.015E+00
			-58.50		18.656E+00
			-58.00		19.460E+00
			-57.50		20.315E+00
			-57.00		21.495E+00
			-56.50		22.777E+00
			-56.00		24.547E+00
			-55.50		26.471E+00
			-55.00		29.207E+00
			-54.50		32.200E+00
			-54.00		37.629E+00
			-53.50		43.828E+00
			-53.00		53.356E+00
			-52.50		63.936E+00
			-52.00		77.267E+00
			-51.50		91.375E+00
			-51.00		107.98E+00
			-50.50		125.30E+00
			-50.00		144.28E+00
			-49.50		163.73E+00
			-49.00		183.35E+00
			-48.50		203.01E+00
			-48.00		221.51E+00
			-47.50		239.68E+00
			-47.00		256.06E+00
			-46.50		271.93E+00
			-46.00		285.97E+00
			-45.50		299.44E+00
			-45.00		310.55E+00
			-44.50		320.92E+00
			-44.00		330.24E+00
			-43.50		339.18E+00
			-43.00		345.44E+00
			-42.50		350.94E+00
			-42.00		356.16E+00
			-41.50		361.29E+00
			-41.00		365.29E+00
			-40.50		368.92E+00
			-40.00		371.92E+00
			-39.50		374.73E+00
			-39.00		376.86E+00
			-38.50		378.81E+00
			-38.00		380.55E+00
			-37.50		382.24E+00
			-37.00		383.62E+00
			-36.50		384.90E+00
			-36.00		386.35E+00
			-35.50		387.84E+00
			-35.00		389.16E+00
			-34.50		390.43E+00
			-34.00		391.72E+00
			-33.50		393.02E+00
			-33.00		394.13E+00
			-32.50		395.19E+00
			-32.00		396.26E+00
			-31.50		397.34E+00
			-31.00		398.24E+00
			-30.50		399.09E+00
			-30.00		399.95E+00
			-29.50		400.81E+00
			-29.00		401.67E+00
			-28.50		402.52E+00
			-28.00		403.21E+00
			-27.50		403.85E+00
			-27.00		404.66E+00
			-26.50		405.51E+00
			-26.00		406.37E+00
			-25.50		407.22E+00
			-25.00		408.08E+00
			-24.50		408.93E+00
			-24.00		409.79E+00
			-23.50		410.64E+00
			-23.00		411.33E+00
			-22.50		411.96E+00
			-22.00		412.60E+00
			-21.50		413.24E+00
			-21.00		413.89E+00
			-20.50		414.54E+00
			-20.00		415.18E+00
			-19.50		415.82E+00
			-19.00		416.46E+00
			-18.50		417.09E+00
			-18.00		417.73E+00
			-17.50		418.37E+00
			-17.00		418.85E+00
			-16.50		419.29E+00
			-16.00		419.72E+00
			-15.50		420.15E+00
			-15.00		420.58E+00
			-14.50		421.00E+00
			-14.00		421.59E+00
			-13.50		422.22E+00
			-13.00		422.70E+00
			-12.50		423.13E+00
			-12.00		423.56E+00
			-11.50		423.98E+00
			-11.00		424.25E+00
			-10.50		424.46E+00
			-10.00		424.84E+00
			-9.50		425.26E+00
			-9.00		425.53E+00
			-8.50		425.74E+00
			-8.00		425.96E+00
			-7.50		426.17E+00
			-7.00		426.38E+00
			-6.50		426.59E+00
			-6.00		426.81E+00
			-5.50		427.02E+00
			-5.00		427.24E+00
			-4.50		427.45E+00
			-4.00		427.67E+00
			-3.50		427.88E+00
			-3.00		427.93E+00
			-2.50		427.93E+00
			-2.00		427.77E+00
			-1.50		427.56E+00
			-1.00		427.50E+00
			-0.50		427.50E+00
			0.00		427.50E+00
			0.50		427.50E+00
			1.00		427.34E+00
			1.50		427.13E+00
			2.00		426.92E+00
			2.50		426.70E+00
			3.00		426.49E+00
			3.50		426.28E+00
			4.00		425.90E+00
			4.50		425.47E+00
			5.00		425.20E+00
			5.50		424.99E+00
			6.00		424.78E+00
			6.50		424.56E+00
			7.00		424.19E+00
			7.50		423.76E+00
			8.00		423.49E+00
			8.50		423.28E+00
			9.00		423.06E+00
			9.50		422.85E+00
			10.00		422.64E+00
			10.50		422.42E+00
			11.00		422.21E+00
			11.50		422.00E+00
			12.00		421.78E+00
			12.50		421.57E+00
			13.00		421.20E+00
			13.50		420.77E+00
			14.00		420.34E+00
			14.50		419.91E+00
			15.00		419.48E+00
			15.50		419.06E+00
			16.00		418.63E+00
			16.50		418.20E+00
			17.00		417.77E+00
			17.50		417.35E+00
			18.00		416.92E+00
			18.50		416.49E+00
			19.00		416.06E+00
			19.50		415.64E+00
			20.00		415.04E+00
			20.50		414.39E+00
			21.00		413.75E+00
			21.50		413.11E+00
			22.00		412.64E+00
			22.50		412.22E+00
			23.00		411.63E+00
			23.50		410.99E+00
			24.00		410.34E+00
			24.50		409.70E+00
			25.00		409.22E+00
			25.50		408.80E+00
			26.00		408.21E+00
			26.50		407.57E+00
			27.00		406.93E+00
			27.50		406.29E+00
			28.00		405.49E+00
			28.50		404.63E+00
			29.00		403.93E+00
			29.50		403.29E+00
			30.00		402.49E+00
			30.50		401.63E+00
			31.00		400.94E+00
			31.50		400.30E+00
			32.00		399.65E+00
			32.50		399.00E+00
			33.00		398.19E+00
			33.50		397.32E+00
			34.00		396.30E+00
			34.50		395.25E+00
			35.00		394.18E+00
			35.50		393.11E+00
			36.00		391.88E+00
			36.50		390.59E+00
			37.00		389.31E+00
			37.50		388.03E+00
			38.00		386.75E+00
			38.50		385.46E+00
			39.00		383.86E+00
			39.50		382.17E+00
			40.00		380.45E+00
			40.50		378.72E+00
			41.00		376.52E+00
			41.50		374.18E+00
			42.00		371.35E+00
			42.50		368.37E+00
			43.00		362.89E+00
			43.50		356.63E+00
			44.00		348.09E+00
			44.50		338.90E+00
			45.00		326.20E+00
			45.50		312.52E+00
			46.00		296.67E+00
			46.50		280.22E+00
			47.00		261.57E+00
			47.50		242.31E+00
			48.00		222.43E+00
			48.50		202.35E+00
			49.00		183.08E+00
			49.50		164.03E+00
			50.00		146.63E+00
			50.50		129.74E+00
			51.00		114.80E+00
			51.50		100.48E+00
			52.00		88.433E+00
			52.50		77.105E+00
			53.00		68.050E+00
			53.50		59.714E+00
			54.00		53.002E+00
			54.50		46.803E+00
			55.00		41.705E+00
			55.50		36.955E+00
			56.00		33.243E+00
			56.50		29.823E+00
			57.00		27.254E+00
			57.50		24.926E+00
			58.00		23.219E+00
			58.50		21.708E+00
			59.00		20.708E+00
			59.50		19.853E+00
			60.00		18.998E+00
			60.50		18.143E+00
			61.00		17.460E+00
			61.50		16.825E+00
			62.00		16.348E+00
			62.50		15.920E+00
			63.00		15.493E+00
			63.50		15.065E+00
			64.00		14.799E+00
			64.50		14.583E+00
			65.00		14.205E+00
			65.50		13.782E+00
			66.00		13.518E+00
			66.50		13.304E+00
			67.00		12.924E+00
			67.50		12.493E+00
			68.00		12.231E+00
			68.50		12.017E+00
			69.00		11.803E+00
			69.50		11.590E+00
			70.00		11.378E+00
			70.50		11.166E+00
			71.00		10.951E+00
			71.50		10.735E+00
			72.00		10.521E+00
			72.50		10.307E+00
			73.00		10.095E+00
			73.50		9.8834E+00
			74.00		9.6701E+00
			74.50		9.4564E+00
			75.00		9.2410E+00
			75.50		9.0251E+00
			76.00		8.9776E+00
			76.50		8.9776E+00
			77.00		8.8125E+00
			77.50		8.6009E+00
			78.00		8.5501E+00
			78.50		8.5501E+00
			79.00		8.3876E+00
			79.50		8.1739E+00
			80.00		7.9601E+00
			80.50		7.7464E+00
			81.00		7.6951E+00
			81.50		7.6951E+00
			82.00		7.5310E+00
			82.50		7.3151E+00
			83.00		7.2676E+00
			83.50		7.2676E+00
			84.00		7.1051E+00
			84.50		6.8914E+00
			85.00		6.8401E+00
			85.50		6.8401E+00
			86.00		6.6776E+00
			86.50		6.4639E+00
			87.00		6.4126E+00
			87.50		6.4126E+00
			88.00		6.4126E+00
			88.50		6.4126E+00
			89.00		6.2544E+00
			89.50		6.0406E+00
		END_DATA
	END_SCAN  1
	BEGIN_SCAN  2
		TASK_NAME=tba PDD Profiles
		PROGRAM=WaterTankScans
		COMMENT=Gemelli
		MEAS_DATE=08-Feb-2021 09:38:10
		LINAC=MRIdian
		MODALITY=X
		ISOCENTER=900.00
		INPLANE_AXIS=Y
		CROSSPLANE_AXIS=X
		DEPTH_AXIS=Depth
		INPLANE_AXIS_DIR=TARGET_GUN
		CROSSPLANE_AXIS_DIR=LEFT_RIGHT
		DEPTH_AXIS_DIR=UP_DOWN
		ENERGY=6.00
		NOMINAL_DMAX=15.00
		SSD=850.00
		SCD=450.00
		WEDGE_ANGLE=0.00
		FIELD_INPLANE=99.60
		FIELD_CROSSPLANE=99.60
		FIELD_TYPE=RECTANGULAR
		GANTRY=0.00
		GANTRY_UPRIGHT_POSITION=0
		GANTRY_ROTATION=CW
		COLL_ANGLE=0.00
		COLL_OFFSET_INPLANE=0.00
		COLL_OFFSET_CROSSPLANE=0.00
		SCAN_DEVICE=BeamScan
		SCAN_DEVICE_SETUP=BARA_LEFT_RIGHT
		ELECTROMETER=BeamScan
		RANGE_FIELD=LOW
		RANGE_REFERENCE=MEDIUM
		DETECTOR=THIMBLE_CHAMBER
		DETECTOR_RADIUS=2.40
		DETECTOR_NAME=A28MR
		DETECTOR_SN=-
		DETECTOR_CALIBRATION=588000000.00
		DETECTOR_IS_CALIBRATED=0
		DETECTOR_REFERENCE=THIMBLE_CHAMBER
		DETECTOR_REFERENCE_RADIUS=2.75
		DETECTOR_REFERENCE_NAME=A28MR
		DETECTOR_REFERENCE_SN=—
		DETECTOR_REFERENCE_IS_CALIBRATED=0
		DETECTOR_REFERENCE_CALIBRATION=303000000.00
		DETECTOR_HV=300.0
		DETECTOR_REFERENCE_HV=300.0
		DETECTOR_ORIENTATION=HORIZONTAL
		FILTER=FFF
		SCAN_SPEED_PROFILE=10.00
		SCAN_PROF_SPEED_DEP=DEPTH
		SCAN_SPEED_PDD=0.00
		SCAN_PDD_SPEED_DEP=ENERGY
		DETECTOR_TYPE=A28MR
		REF_FIELD_DEPTH=220.00
		REF_FIELD_DEFINED=ISOCENTER
		REF_FIELD_INPLANE=100.00
		REF_FIELD_CROSSPLANE=100.00
		REF_SCAN_POSITIONS=-85.00;-84.00;-83.00;-82.00;-81.00;-80.00;-79.00;-78.00;-77.00;-76.00;-75.00;-74.00;-73.00;-72.00;-71.00;-70.00;-69.00;-68.00;-67.00;-66.00;-65.00;-64.00;-63.00;-62.00;-61.00;-60.00;-59.00;-58.00;-57.00;-56.00;-55.00;-54.00;-53.00;-52.00;-51.00;-50.00;-49.00;-48.00;-47.00;-46.00;-45.00;-44.00;-43.00;-42.00;-41.00;-40.00;-39.00;-38.00;-37.00;-36.00;-35.00;-34.00;-33.00;-32.00;-31.00;-30.00;-29.00;-28.00;-27.00;-26.00;-25.00;-24.00;-23.00;-22.00;-21.00;-20.00;-19.00;-18.00;-17.00;-16.00;-15.00;-14.00;-13.00;-12.00;-11.00;-10.00;-9.00;-8.00;-7.00;-6.00;-5.00;-4.00;-3.00;-2.00;-1.00;0.00;1.00;2.00;3.00;4.00;5.00;6.00;7.00;8.00;9.00;10.00;11.00;12.00;13.00;14.00;15.00;16.00;17.00;18.00;19.00;20.00;21.00;22.00;23.00;24.00;25.00;26.00;27.00;28.00;29.00;30.00;31.00;32.00;33.00;34.00;35.00;36.00;37.00;38.00;39.00;40.00;41.00;42.00;43.00;44.00;45.00;46.00;47.00;48.00;49.00;50.00;51.00;52.00;53.00;54.00;55.00;56.00;57.00;58.00;59.00;60.00;61.00;62.00;63.00;64.00;65.00;66.00;67.00;68.00;69.00;70.00;71.00;72.00;73.00;74.00;75.00;76.00;77.00;78.00;79.00;80.00;81.00;82.00;83.00;84.00;85.00;
		REF_OVERSCAN_FACTOR=1.00
		SCAN_CURVETYPE=INPLANE_PROFILE
		SCAN_DEPTH=55.00
		SCAN_OFFAXIS_INPLANE=0.00
		SCAN_OFFAXIS_CROSSPLANE=0.00
		SCAN_ANGLE=0.00
		SCAN_DIAGONAL=NOT_DIAGONAL
		SCAN_DIRECTION=POSITIVE
		MEAS_MEDIUM=WATER
		MEAS_PRESET=MEAS_CONTINUOUS_REFERENCE_SCAN
		MEAS_TIME=0.100
		MEAS_UNIT=A.U.
		INCLINATION_ANGLE=0.00
		PRESSURE=1013.25
		TEMPERATURE=20.00
		NORM_TEMPERATURE=20.00
		CORRECTION_FACTOR=1.0000
		EXPECTED_MAX_DOSE_RATE=3.00
		EPOM_DEPTH_SHIFT=0.2
		EPOM_MODE=SHIFT_PROTOCOL
		CORRECTIONS=SMOOTHED_CORR;CAX_CORR;INTERPOLATED_CORR;
		BEGIN_DATA
			-90.00		7.8598E+00
			-89.50		7.8737E+00
			-89.00		7.9117E+00
			-88.50		8.0008E+00
			-88.00		8.1051E+00
			-87.50		8.2487E+00
			-87.00		8.3895E+00
			-86.50		8.5230E+00
			-86.00		8.6380E+00
			-85.50		8.7101E+00
			-85.00		8.8129E+00
			-84.50		8.9877E+00
			-84.00		9.1391E+00
			-83.50		9.2361E+00
			-83.00		9.3469E+00
			-82.50		9.4933E+00
			-82.00		9.6466E+00
			-81.50		9.8195E+00
			-81.00		9.9917E+00
			-80.50		10.162E+00
			-80.00		10.351E+00
			-79.50		10.587E+00
			-79.00		10.798E+00
			-78.50		10.942E+00
			-78.00		11.085E+00
			-77.50		11.229E+00
			-77.00		11.398E+00
			-76.50		11.642E+00
			-76.00		11.870E+00
			-75.50		12.056E+00
			-75.00		12.274E+00
			-74.50		12.575E+00
			-74.00		12.835E+00
			-73.50		13.003E+00
			-73.00		13.209E+00
			-72.50		13.505E+00
			-72.00		13.798E+00
			-71.50		14.079E+00
			-71.00		14.373E+00
			-70.50		14.701E+00
			-70.00		15.016E+00
			-69.50		15.300E+00
			-69.00		15.613E+00
			-68.50		16.001E+00
			-68.00		16.373E+00
			-67.50		16.701E+00
			-67.00		17.066E+00
			-66.50		17.527E+00
			-66.00		17.974E+00
			-65.50		18.384E+00
			-65.00		18.810E+00
			-64.50		19.277E+00
			-64.00		19.753E+00
			-63.50		20.249E+00
			-63.00		20.777E+00
			-62.50		21.382E+00
			-62.00		22.002E+00
			-61.50		22.660E+00
			-61.00		23.361E+00
			-60.50		24.160E+00
			-60.00		25.000E+00
			-59.50		25.934E+00
			-59.00		26.969E+00
			-58.50		28.262E+00
			-58.00		29.745E+00
			-57.50		31.716E+00
			-57.00		34.048E+00
			-56.50		37.307E+00
			-56.00		41.213E+00
			-55.50		46.783E+00
			-55.00		53.392E+00
			-54.50		62.427E+00
			-54.00		72.246E+00
			-53.50		84.080E+00
			-53.00		96.361E+00
			-52.50		109.79E+00
			-52.00		123.68E+00
			-51.50		138.65E+00
			-51.00		153.59E+00
			-50.50		168.45E+00
			-50.00		182.99E+00
			-49.50		196.78E+00
			-49.00		210.12E+00
			-48.50		222.38E+00
			-48.00		233.84E+00
			-47.50		243.43E+00
			-47.00		252.53E+00
			-46.50		260.49E+00
			-46.00		267.95E+00
			-45.50		274.20E+00
			-45.00		279.96E+00
			-44.50		284.43E+00
			-44.00		288.86E+00
			-43.50		293.15E+00
			-43.00		297.00E+00
			-42.50		299.84E+00
			-42.00		302.59E+00
			-41.50		305.11E+00
			-41.00		307.40E+00
			-40.50		309.10E+00
			-40.00		310.79E+00
			-39.50		312.40E+00
			-39.00		313.98E+00
			-38.50		315.45E+00
			-38.00		316.87E+00
			-37.50		318.17E+00
			-37.00		319.42E+00
			-36.50		320.55E+00
			-36.00		321.63E+00
			-35.50		322.62E+00
			-35.00		323.58E+00
			-34.50		324.45E+00
			-34.00		325.32E+00
			-33.50		326.15E+00
			-33.00		326.99E+00
			-32.50		327.87E+00
			-32.00		328.77E+00
			-31.50		329.69E+00
			-31.00		330.59E+00
			-30.50		331.46E+00
			-30.00		332.30E+00
			-29.50		333.07E+00
			-29.00		333.80E+00
			-28.50		334.47E+00
			-28.00		335.12E+00
			-27.50		335.74E+00
			-27.00		336.36E+00
			-26.50		336.99E+00
			-26.00		337.64E+00
			-25.50		338.32E+00
			-25.00		339.01E+00
			-24.50		339.70E+00
			-24.00		340.37E+00
			-23.50		341.02E+00
			-23.00		341.65E+00
			-22.50		342.25E+00
			-22.00		342.86E+00
			-21.50		343.46E+00
			-21.00		344.06E+00
			-20.50		344.69E+00
			-20.00		345.30E+00
			-19.50		345.89E+00
			-19.00		346.45E+00
			-18.50		346.93E+00
			-18.00		347.38E+00
			-17.50		347.77E+00
			-17.00		348.17E+00
			-16.50		348.58E+00
			-16.00		349.02E+00
			-15.50		349.48E+00
			-15.00		349.94E+00
			-14.50		350.38E+00
			-14.00		350.81E+00
			-13.50		351.19E+00
			-13.00		351.58E+00
			-12.50		351.97E+00
			-12.00		352.37E+00
			-11.50		352.79E+00
			-11.00		353.19E+00
			-10.50		353.56E+00
			-10.00		353.89E+00
			-9.50		354.14E+00
			-9.00		354.37E+00
			-8.50		354.55E+00
			-8.00		354.73E+00
			-7.50		354.89E+00
			-7.00		355.04E+00
			-6.50		355.17E+00
			-6.00		355.29E+00
			-5.50		355.40E+00
			-5.00		355.49E+00
			-4.50		355.57E+00
			-4.00		355.64E+00
			-3.50		355.67E+00
			-3.00		355.69E+00
			-2.50		355.68E+00
			-2.00		355.66E+00
			-1.50		355.62E+00
			-1.00		355.56E+00
			-0.50		355.45E+00
			0.00		355.32E+00
			0.50		355.14E+00
			1.00		354.98E+00
			1.50		354.84E+00
			2.00		354.72E+00
			2.50		354.65E+00
			3.00		354.57E+00
			3.50		354.49E+00
			4.00		354.38E+00
			4.50		354.20E+00
			5.00		354.00E+00
			5.50		353.74E+00
			6.00		353.49E+00
			6.50		353.24E+00
			7.00		353.02E+00
			7.50		352.87E+00
			8.00		352.73E+00
			8.50		352.63E+00
			9.00		352.49E+00
			9.50		352.29E+00
			10.00		352.06E+00
			10.50		351.77E+00
			11.00		351.48E+00
			11.50		351.21E+00
			12.00		350.95E+00
			12.50		350.72E+00
			13.00		350.49E+00
			13.50		350.24E+00
			14.00		349.99E+00
			14.50		349.71E+00
			15.00		349.42E+00
			15.50		349.11E+00
			16.00		348.77E+00
			16.50		348.38E+00
			17.00		347.96E+00
			17.50		347.48E+00
			18.00		346.98E+00
			18.50		346.47E+00
			19.00		345.97E+00
			19.50		345.51E+00
			20.00		345.07E+00
			20.50		344.69E+00
			21.00		344.30E+00
			21.50		343.92E+00
			22.00		343.52E+00
			22.50		343.06E+00
			23.00		342.57E+00
			23.50		342.01E+00
			24.00		341.44E+00
			24.50		340.83E+00
			25.00		340.21E+00
			25.50		339.59E+00
			26.00		338.97E+00
			26.50		338.37E+00
			27.00		337.77E+00
			27.50		337.21E+00
			28.00		336.64E+00
			28.50		336.08E+00
			29.00		335.50E+00
			29.50		334.87E+00
			30.00		334.22E+00
			30.50		333.50E+00
			31.00		332.79E+00
			31.50		332.09E+00
			32.00		331.41E+00
			32.50		330.77E+00
			33.00		330.13E+00
			33.50		329.46E+00
			34.00		328.75E+00
			34.50		327.95E+00
			35.00		327.10E+00
			35.50		326.17E+00
			36.00		325.22E+00
			36.50		324.21E+00
			37.00		323.18E+00
			37.50		322.09E+00
			38.00		320.97E+00
			38.50		319.78E+00
			39.00		318.56E+00
			39.50		317.28E+00
			40.00		315.97E+00
			40.50		314.56E+00
			41.00		313.09E+00
			41.50		311.46E+00
			42.00		309.75E+00
			42.50		307.86E+00
			43.00		305.91E+00
			43.50		303.82E+00
			44.00		301.31E+00
			44.50		297.81E+00
			45.00		293.74E+00
			45.50		288.36E+00
			46.00		281.98E+00
			46.50		273.29E+00
			47.00		263.74E+00
			47.50		252.38E+00
			48.00		240.50E+00
			48.50		227.42E+00
			49.00		213.70E+00
			49.50		198.48E+00
			50.00		183.35E+00
			50.50		168.42E+00
			51.00		153.69E+00
			51.50		139.42E+00
			52.00		125.65E+00
			52.50		113.14E+00
			53.00		101.29E+00
			53.50		91.010E+00
			54.00		81.286E+00
			54.50		73.002E+00
			55.00		65.244E+00
			55.50		58.714E+00
			56.00		52.715E+00
			56.50		47.956E+00
			57.00		43.558E+00
			57.50		40.004E+00
			58.00		36.766E+00
			58.50		34.261E+00
			59.00		31.934E+00
			59.50		29.985E+00
			60.00		28.268E+00
			60.50		27.094E+00
			61.00		25.963E+00
			61.50		24.933E+00
			62.00		23.964E+00
			62.50		23.153E+00
			63.00		22.400E+00
			63.50		21.797E+00
			64.00		21.196E+00
			64.50		20.602E+00
			65.00		20.077E+00
			65.50		19.709E+00
			66.00		19.321E+00
			66.50		18.882E+00
			67.00		18.451E+00
			67.50		18.042E+00
			68.00		17.647E+00
			68.50		17.283E+00
			69.00		16.903E+00
			69.50		16.488E+00
			70.00		16.115E+00
			70.50		15.840E+00
			71.00		15.538E+00
			71.50		15.171E+00
			72.00		14.861E+00
			72.50		14.669E+00
			73.00		14.412E+00
			73.50		14.003E+00
			74.00		13.672E+00
			74.50		13.541E+00
			75.00		13.376E+00
			75.50		13.128E+00
			76.00		12.883E+00
			76.50		12.647E+00
			77.00		12.406E+00
			77.50		12.153E+00
			78.00		11.908E+00
			78.50		11.687E+00
			79.00		11.477E+00
			79.50		11.293E+00
			80.00		11.124E+00
			80.50		10.992E+00
			81.00		10.821E+00
			81.50		10.561E+00
			82.00		10.352E+00
			82.50		10.275E+00
			83.00		10.156E+00
			83.50		9.9407E+00
			84.00		9.7671E+00
			84.50		9.6919E+00
			85.00		9.5832E+00
			85.50		9.3884E+00
			86.00		9.2143E+00
			86.50		9.0935E+00
			87.00		8.9817E+00
			87.50		8.8927E+00
			88.00		8.7782E+00
			88.50		8.5909E+00
			89.00		8.4330E+00
			89.50		8.3503E+00
		END_DATA
	END_SCAN  2
	BEGIN_SCAN  3
		TASK_NAME=tba PDD Profiles
		PROGRAM=WaterTankScans
		COMMENT=Gemelli
		MEAS_DATE=08-Feb-2021 09:38:10
		LINAC=MRIdian
		MODALITY=X
		ISOCENTER=900.00
		INPLANE_AXIS=Y
		CROSSPLANE_AXIS=X
		DEPTH_AXIS=Depth
		INPLANE_AXIS_DIR=TARGET_GUN
		CROSSPLANE_AXIS_DIR=LEFT_RIGHT
		DEPTH_AXIS_DIR=UP_DOWN
		ENERGY=6.00
		NOMINAL_DMAX=15.00
		SSD=850.00
		SCD=450.00
		WEDGE_ANGLE=0.00
		FIELD_INPLANE=99.60
		FIELD_CROSSPLANE=99.60
		FIELD_TYPE=RECTANGULAR
		GANTRY=0.00
		GANTRY_UPRIGHT_POSITION=0
		GANTRY_ROTATION=CW
		COLL_ANGLE=0.00
		COLL_OFFSET_INPLANE=0.00
		COLL_OFFSET_CROSSPLANE=0.00
		SCAN_DEVICE=BeamScan
		SCAN_DEVICE_SETUP=BARA_LEFT_RIGHT
		ELECTROMETER=BeamScan
		RANGE_FIELD=LOW
		RANGE_REFERENCE=MEDIUM
		DETECTOR=THIMBLE_CHAMBER
		DETECTOR_RADIUS=2.40
		DETECTOR_NAME=A28MR
		DETECTOR_SN=-
		DETECTOR_CALIBRATION=588000000.00
		DETECTOR_IS_CALIBRATED=0
		DETECTOR_REFERENCE=THIMBLE_CHAMBER
		DETECTOR_REFERENCE_RADIUS=2.75
		DETECTOR_REFERENCE_NAME=A28MR
		DETECTOR_REFERENCE_SN=—
		DETECTOR_REFERENCE_IS_CALIBRATED=0
		DETECTOR_REFERENCE_CALIBRATION=303000000.00
		DETECTOR_HV=300.0
		DETECTOR_REFERENCE_HV=300.0
		DETECTOR_ORIENTATION=HORIZONTAL
		FILTER=FFF
		SCAN_SPEED_PROFILE=10.00
		SCAN_PROF_SPEED_DEP=DEPTH
		SCAN_SPEED_PDD=0.00
		SCAN_PDD_SPEED_DEP=ENERGY
		DETECTOR_TYPE=A28MR
		REF_FIELD_DEPTH=220.00
		REF_FIELD_DEFINED=ISOCENTER
		REF_FIELD_INPLANE=100.00
		REF_FIELD_CROSSPLANE=100.00
		REF_SCAN_POSITIONS=-85.00;-84.00;-83.00;-82.00;-81.00;-80.00;-79.00;-78.00;-77.00;-76.00;-75.00;-74.00;-73.00;-72.00;-71.00;-70.00;-69.00;-68.00;-67.00;-66.00;-65.00;-64.00;-63.00;-62.00;-61.00;-60.00;-59.00;-58.00;-57.00;-56.00;-55.00;-54.00;-53.00;-52.00;-51.00;-50.00;-49.00;-48.00;-47.00;-46.00;-45.00;-44.00;-43.00;-42.00;-41.00;-40.00;-39.00;-38.00;-37.00;-36.00;-35.00;-34.00;-33.00;-32.00;-31.00;-30.00;-29.00;-28.00;-27.00;-26.00;-25.00;-24.00;-23.00;-22.00;-21.00;-20.00;-19.00;-18.00;-17.00;-16.00;-15.00;-14.00;-13.00;-12.00;-11.00;-10.00;-9.00;-8.00;-7.00;-6.00;-5.00;-4.00;-3.00;-2.00;-1.00;0.00;1.00;2.00;3.00;4.00;5.00;6.00;7.00;8.00;9.00;10.00;11.00;12.00;13.00;14.00;15.00;16.00;17.00;18.00;19.00;20.00;21.00;22.00;23.00;24.00;25.00;26.00;27.00;28.00;29.00;30.00;31.00;32.00;33.00;34.00;35.00;36.00;37.00;38.00;39.00;40.00;41.00;42.00;43.00;44.00;45.00;46.00;47.00;48.00;49.00;50.00;51.00;52.00;53.00;54.00;55.00;56.00;57.00;58.00;59.00;60.00;61.00;62.00;63.00;64.00;65.00;66.00;67.00;68.00;69.00;70.00;71.00;72.00;73.00;74.00;75.00;76.00;77.00;78.00;79.00;80.00;81.00;82.00;83.00;84.00;85.00;
		REF_OVERSCAN_FACTOR=1.00
		SCAN_CURVETYPE=INPLANE_PROFILE
		SCAN_DEPTH=100.00
		SCAN_OFFAXIS_INPLANE=0.00
		SCAN_OFFAXIS_CROSSPLANE=0.00
		SCAN_ANGLE=0.00
		SCAN_DIAGONAL=NOT_DIAGONAL
		SCAN_DIRECTION=POSITIVE
		MEAS_MEDIUM=WATER
		MEAS_PRESET=MEAS_CONTINUOUS_REFERENCE_SCAN
		MEAS_TIME=0.100
		MEAS_UNIT=A.U.
		INCLINATION_ANGLE=0.00
		PRESSURE=1013.25
		TEMPERATURE=20.00
		NORM_TEMPERATURE=20.00
		CORRECTION_FACTOR=1.0000
		EXPECTED_MAX_DOSE_RATE=3.00
		EPOM_DEPTH_SHIFT=0.2
		EPOM_MODE=SHIFT_PROTOCOL
		CORRECTIONS=SMOOTHED_CORR;CAX_CORR;INTERPOLATED_CORR;
		BEGIN_DATA
			-89.50		10.120E+00
			-89.00		10.169E+00
			-88.50		10.253E+00
			-88.00		10.354E+00
			-87.50		10.515E+00
			-87.00		10.708E+00
			-86.50		10.900E+00
			-86.00		11.091E+00
			-85.50		11.219E+00
			-85.00		11.310E+00
			-84.50		11.430E+00
			-84.00		11.567E+00
			-83.50		11.734E+00
			-83.00		11.920E+00
			-82.50		12.172E+00
			-82.00		12.466E+00
			-81.50		12.655E+00
			-81.00		12.778E+00
			-80.50		12.973E+00
			-80.00		13.213E+00
			-79.50		13.425E+00
			-79.00		13.619E+00
			-78.50		13.842E+00
			-78.00		14.082E+00
			-77.50		14.346E+00
			-77.00		14.624E+00
			-76.50		14.853E+00
			-76.00		15.052E+00
			-75.50		15.283E+00
			-75.00		15.534E+00
			-74.50		15.758E+00
			-74.00		15.967E+00
			-73.50		16.296E+00
			-73.00		16.698E+00
			-72.50		17.020E+00
			-72.00		17.298E+00
			-71.50		17.613E+00
			-71.00		17.951E+00
			-70.50		18.294E+00
			-70.00		18.640E+00
			-69.50		19.048E+00
			-69.00		19.498E+00
			-68.50		19.896E+00
			-68.00		20.263E+00
			-67.50		20.670E+00
			-67.00		21.103E+00
			-66.50		21.567E+00
			-66.00		22.053E+00
			-65.50		22.509E+00
			-65.00		22.947E+00
			-64.50		23.483E+00
			-64.00		24.081E+00
			-63.50		24.727E+00
			-63.00		25.402E+00
			-62.50		26.180E+00
			-62.00		27.020E+00
			-61.50		27.978E+00
			-61.00		29.001E+00
			-60.50		30.307E+00
			-60.00		31.785E+00
			-59.50		33.881E+00
			-59.00		36.355E+00
			-58.50		39.733E+00
			-58.00		43.620E+00
			-57.50		48.988E+00
			-57.00		55.264E+00
			-56.50		62.673E+00
			-56.00		70.776E+00
			-55.50		79.772E+00
			-55.00		89.362E+00
			-54.50		99.407E+00
			-54.00		109.71E+00
			-53.50		120.11E+00
			-53.00		130.58E+00
			-52.50		140.57E+00
			-52.00		150.27E+00
			-51.50		159.35E+00
			-51.00		168.09E+00
			-50.50		175.86E+00
			-50.00		183.07E+00
			-49.50		189.60E+00
			-49.00		195.73E+00
			-48.50		200.81E+00
			-48.00		205.24E+00
			-47.50		209.47E+00
			-47.00		213.58E+00
			-46.50		216.87E+00
			-46.00		219.70E+00
			-45.50		222.23E+00
			-45.00		224.56E+00
			-44.50		226.64E+00
			-44.00		228.56E+00
			-43.50		230.26E+00
			-43.00		231.83E+00
			-42.50		233.22E+00
			-42.00		234.53E+00
			-41.50		235.74E+00
			-41.00		236.88E+00
			-40.50		237.92E+00
			-40.00		238.89E+00
			-39.50		239.80E+00
			-39.00		240.69E+00
			-38.50		241.55E+00
			-38.00		242.40E+00
			-37.50		243.22E+00
			-37.00		244.03E+00
			-36.50		244.82E+00
			-36.00		245.60E+00
			-35.50		246.38E+00
			-35.00		247.15E+00
			-34.50		247.91E+00
			-34.00		248.66E+00
			-33.50		249.37E+00
			-33.00		250.06E+00
			-32.50		250.68E+00
			-32.00		251.27E+00
			-31.50		251.83E+00
			-31.00		252.37E+00
			-30.50		252.91E+00
			-30.00		253.46E+00
			-29.50		254.02E+00
			-29.00		254.59E+00
			-28.50		255.17E+00
			-28.00		255.76E+00
			-27.50		256.36E+00
			-27.00		256.97E+00
			-26.50		257.58E+00
			-26.00		258.19E+00
			-25.50		258.75E+00
			-25.00		259.28E+00
			-24.50		259.76E+00
			-24.00		260.21E+00
			-23.50		260.65E+00
			-23.00		261.08E+00
			-22.50		261.52E+00
			-22.00		261.98E+00
			-21.50		262.42E+00
			-21.00		262.86E+00
			-20.50		263.26E+00
			-20.00		263.63E+00
			-19.50		263.99E+00
			-19.00		264.35E+00
			-18.50		264.71E+00
			-18.00		265.09E+00
			-17.50		265.46E+00
			-17.00		265.82E+00
			-16.50		266.15E+00
			-16.00		266.46E+00
			-15.50		266.77E+00
			-15.00		267.06E+00
			-14.50		267.34E+00
			-14.00		267.62E+00
			-13.50		267.89E+00
			-13.00		268.15E+00
			-12.50		268.41E+00
			-12.00		268.67E+00
			-11.50		268.95E+00
			-11.00		269.23E+00
			-10.50		269.51E+00
			-10.00		269.77E+00
			-9.50		270.00E+00
			-9.00		270.22E+00
			-8.50		270.40E+00
			-8.00		270.56E+00
			-7.50		270.70E+00
			-7.00		270.82E+00
			-6.50		270.89E+00
			-6.00		270.94E+00
			-5.50		270.97E+00
			-5.00		270.97E+00
			-4.50		270.99E+00
			-4.00		271.03E+00
			-3.50		271.10E+00
			-3.00		271.21E+00
			-2.50		271.31E+00
			-2.00		271.42E+00
			-1.50		271.48E+00
			-1.00		271.50E+00
