BEGIN_SCAN_DATA
	FORMAT=CC-Export V1.9                  
	FILE_CREATION_DATE=30-Oct-2022 19:18:12
	LAST_MODIFIED=30-Oct-2022 19:18:12
	BEGIN_SCAN  1
		TASK_NAME=tba PDD Profiles
		PROGRAM=WaterTankScans
		COMMENT=FBF_SanPietro
		MEAS_DATE=08-Feb-2021 09:38:10
		LINAC=MRIdian
		MODALITY=X
		ISOCENTER=900.00
		INPLANE_AXIS=Y
		CROSSPLANE_AXIS=X
		DEPTH_AXIS=Depth
		INPLANE_AXIS_DIR=TARGET_GUN
		CROSSPLANE_AXIS_DIR=LEFT_RIGHT
		DEPTH_AXIS_DIR=UP_DOWN
		ENERGY=6.00
		NOMINAL_DMAX=15.00
		SSD=850.00
		SCD=450.00
		WEDGE_ANGLE=0.00
		FIELD_INPLANE=99.60
		FIELD_CROSSPLANE=99.60
		FIELD_TYPE=RECTANGULAR
		GANTRY=0.00
		GANTRY_UPRIGHT_POSITION=0
		GANTRY_ROTATION=CW
		COLL_ANGLE=0.00
		COLL_OFFSET_INPLANE=0.00
		COLL_OFFSET_CROSSPLANE=0.00
		SCAN_DEVICE=BeamScan
		SCAN_DEVICE_SETUP=BARA_LEFT_RIGHT
		ELECTROMETER=BeamScan
		RANGE_FIELD=LOW
		RANGE_REFERENCE=MEDIUM
		DETECTOR=THIMBLE_CHAMBER
		DETECTOR_RADIUS=2.40
		DETECTOR_NAME=A28MR
		DETECTOR_SN=-
		DETECTOR_CALIBRATION=588000000.00
		DETECTOR_IS_CALIBRATED=0
		DETECTOR_REFERENCE=THIMBLE_CHAMBER
		DETECTOR_REFERENCE_RADIUS=2.75
		DETECTOR_REFERENCE_NAME=A28MR
		DETECTOR_REFERENCE_SN=—
		DETECTOR_REFERENCE_IS_CALIBRATED=0
		DETECTOR_REFERENCE_CALIBRATION=303000000.00
		DETECTOR_HV=300.0
		DETECTOR_REFERENCE_HV=300.0
		DETECTOR_ORIENTATION=HORIZONTAL
		FILTER=FFF
		SCAN_SPEED_PROFILE=10.00
		SCAN_PROF_SPEED_DEP=DEPTH
		SCAN_SPEED_PDD=0.00
		SCAN_PDD_SPEED_DEP=ENERGY
		DETECTOR_TYPE=A28MR
		REF_FIELD_DEPTH=220.00
		REF_FIELD_DEFINED=ISOCENTER
		REF_FIELD_INPLANE=100.00
		REF_FIELD_CROSSPLANE=100.00
		REF_SCAN_POSITIONS=-85.00;-84.00;-83.00;-82.00;-81.00;-80.00;-79.00;-78.00;-77.00;-76.00;-75.00;-74.00;-73.00;-72.00;-71.00;-70.00;-69.00;-68.00;-67.00;-66.00;-65.00;-64.00;-63.00;-62.00;-61.00;-60.00;-59.00;-58.00;-57.00;-56.00;-55.00;-54.00;-53.00;-52.00;-51.00;-50.00;-49.00;-48.00;-47.00;-46.00;-45.00;-44.00;-43.00;-42.00;-41.00;-40.00;-39.00;-38.00;-37.00;-36.00;-35.00;-34.00;-33.00;-32.00;-31.00;-30.00;-29.00;-28.00;-27.00;-26.00;-25.00;-24.00;-23.00;-22.00;-21.00;-20.00;-19.00;-18.00;-17.00;-16.00;-15.00;-14.00;-13.00;-12.00;-11.00;-10.00;-9.00;-8.00;-7.00;-6.00;-5.00;-4.00;-3.00;-2.00;-1.00;0.00;1.00;2.00;3.00;4.00;5.00;6.00;7.00;8.00;9.00;10.00;11.00;12.00;13.00;14.00;15.00;16.00;17.00;18.00;19.00;20.00;21.00;22.00;23.00;24.00;25.00;26.00;27.00;28.00;29.00;30.00;31.00;32.00;33.00;34.00;35.00;36.00;37.00;38.00;39.00;40.00;41.00;42.00;43.00;44.00;45.00;46.00;47.00;48.00;49.00;50.00;51.00;52.00;53.00;54.00;55.00;56.00;57.00;58.00;59.00;60.00;61.00;62.00;63.00;64.00;65.00;66.00;67.00;68.00;69.00;70.00;71.00;72.00;73.00;74.00;75.00;76.00;77.00;78.00;79.00;80.00;81.00;82.00;83.00;84.00;85.00;
		REF_OVERSCAN_FACTOR=1.00
		SCAN_CURVETYPE=INPLANE_PROFILE
		SCAN_DEPTH=20.00
		SCAN_OFFAXIS_INPLANE=0.00
		SCAN_OFFAXIS_CROSSPLANE=0.00
		SCAN_ANGLE=0.00
		SCAN_DIAGONAL=NOT_DIAGONAL
		SCAN_DIRECTION=POSITIVE
		MEAS_MEDIUM=WATER
		MEAS_PRESET=MEAS_CONTINUOUS_REFERENCE_SCAN
		MEAS_TIME=0.100
		MEAS_UNIT=A.U.
		INCLINATION_ANGLE=0.00
		PRESSURE=1013.25
		TEMPERATURE=20.00
		NORM_TEMPERATURE=20.00
		CORRECTION_FACTOR=1.0000
		EXPECTED_MAX_DOSE_RATE=3.00
		EPOM_DEPTH_SHIFT=0.2
		EPOM_MODE=SHIFT_PROTOCOL
		CORRECTIONS=SMOOTHED_CORR;CAX_CORR;INTERPOLATED_CORR;
		BEGIN_DATA
			-90.00		6.2327E+00
			-89.50		6.2672E+00
			-89.00		6.2969E+00
			-88.50		6.3193E+00
			-88.00		6.3776E+00
			-87.50		6.4946E+00
			-87.00		6.6030E+00
			-86.50		6.6961E+00
			-86.00		6.7981E+00
			-85.50		6.9174E+00
			-85.00		7.0164E+00
			-84.50		7.0763E+00
			-84.00		7.1478E+00
			-83.50		7.2417E+00
			-83.00		7.3378E+00
			-82.50		7.4376E+00
			-82.00		7.5465E+00
			-81.50		7.6717E+00
			-81.00		7.8068E+00
			-80.50		7.9596E+00
			-80.00		8.0775E+00
			-79.50		8.1332E+00
			-79.00		8.2151E+00
			-78.50		8.3436E+00
			-78.00		8.4891E+00
			-77.50		8.6645E+00
			-77.00		8.8094E+00
			-76.50		8.8951E+00
			-76.00		9.0137E+00
			-75.50		9.1910E+00
			-75.00		9.3557E+00
			-74.50		9.4980E+00
			-74.00		9.6568E+00
			-73.50		9.8453E+00
			-73.00		10.038E+00
			-72.50		10.240E+00
			-72.00		10.436E+00
			-71.50		10.619E+00
			-71.00		10.810E+00
			-70.50		11.013E+00
			-70.00		11.238E+00
			-69.50		11.502E+00
			-69.00		11.730E+00
			-68.50		11.898E+00
			-68.00		12.108E+00
			-67.50		12.385E+00
			-67.00		12.699E+00
			-66.50		13.078E+00
			-66.00		13.434E+00
			-65.50		13.752E+00
			-65.00		14.072E+00
			-64.50		14.395E+00
			-64.00		14.739E+00
			-63.50		15.119E+00
			-63.00		15.547E+00
			-62.50		16.067E+00
			-62.00		16.573E+00
			-61.50		17.053E+00
			-61.00		17.559E+00
			-60.50		18.105E+00
			-60.00		18.684E+00
			-59.50		19.319E+00
			-59.00		20.023E+00
			-58.50		20.849E+00
			-58.00		21.813E+00
			-57.50		23.003E+00
			-57.00		24.333E+00
			-56.50		25.894E+00
			-56.00		27.776E+00
			-55.50		30.182E+00
			-55.00		33.284E+00
			-54.50		37.523E+00
			-54.00		42.715E+00
			-53.50		49.464E+00
			-53.00		57.942E+00
			-52.50		69.496E+00
			-52.00		82.908E+00
			-51.50		99.355E+00
			-51.00		117.15E+00
			-50.50		137.36E+00
			-50.00		158.29E+00
			-49.50		180.50E+00
			-49.00		202.81E+00
			-48.50		225.30E+00
			-48.00		247.17E+00
			-47.50		267.94E+00
			-47.00		287.71E+00
			-46.50		305.71E+00
			-46.00		322.37E+00
			-45.50		336.83E+00
			-45.00		350.07E+00
			-44.50		361.30E+00
			-44.00		371.63E+00
			-43.50		380.51E+00
			-43.00		388.45E+00
			-42.50		394.87E+00
			-42.00		400.61E+00
			-41.50		405.14E+00
			-41.00		409.39E+00
			-40.50		413.13E+00
			-40.00		416.42E+00
			-39.50		418.97E+00
			-39.00		421.46E+00
			-38.50		423.84E+00
			-38.00		425.83E+00
			-37.50		427.13E+00
			-37.00		428.43E+00
			-36.50		429.74E+00
			-36.00		431.05E+00
			-35.50		432.36E+00
			-35.00		433.66E+00
			-34.50		434.97E+00
			-34.00		436.25E+00
			-33.50		437.50E+00
			-33.00		438.71E+00
			-32.50		439.85E+00
			-32.00		440.93E+00
			-31.50		441.94E+00
			-31.00		442.92E+00
			-30.50		443.86E+00
			-30.00		444.79E+00
			-29.50		445.71E+00
			-29.00		446.64E+00
			-28.50		447.58E+00
			-28.00		448.52E+00
			-27.50		449.45E+00
			-27.00		450.37E+00
			-26.50		451.26E+00
			-26.00		452.12E+00
			-25.50		452.93E+00
			-25.00		453.70E+00
			-24.50		454.41E+00
			-24.00		455.10E+00
			-23.50		455.76E+00
			-23.00		456.43E+00
			-22.50		457.13E+00
			-22.00		457.85E+00
			-21.50		458.60E+00
			-21.00		459.35E+00
			-20.50		460.09E+00
			-20.00		460.80E+00
			-19.50		461.48E+00
			-19.00		462.14E+00
			-18.50		462.76E+00
			-18.00		463.37E+00
			-17.50		463.96E+00
			-17.00		464.55E+00
			-16.50		465.12E+00
			-16.00		465.69E+00
			-15.50		466.27E+00
			-15.00		466.84E+00
			-14.50		467.40E+00
			-14.00		467.93E+00
			-13.50		468.43E+00
			-13.00		468.92E+00
			-12.50		469.38E+00
			-12.00		469.84E+00
			-11.50		470.31E+00
			-11.00		470.80E+00
			-10.50		471.31E+00
			-10.00		471.82E+00
			-9.50		472.31E+00
			-9.00		472.77E+00
			-8.50		473.17E+00
			-8.00		473.52E+00
			-7.50		473.81E+00
			-7.00		474.06E+00
			-6.50		474.27E+00
			-6.00		474.47E+00
			-5.50		474.65E+00
			-5.00		474.85E+00
			-4.50		475.06E+00
			-4.00		475.28E+00
			-3.50		475.52E+00
			-3.00		475.75E+00
			-2.50		475.98E+00
			-2.00		476.19E+00
			-1.50		476.37E+00
			-1.00		476.54E+00
			-0.50		476.69E+00
			0.00		476.82E+00
			0.50		476.91E+00
			1.00		476.99E+00
			1.50		477.02E+00
			2.00		477.02E+00
			2.50		476.98E+00
			3.00		476.92E+00
			3.50		476.84E+00
			4.00		476.75E+00
			4.50		476.64E+00
			5.00		476.51E+00
			5.50		476.35E+00
			6.00		476.15E+00
			6.50		475.89E+00
			7.00		475.59E+00
			7.50		475.23E+00
			8.00		474.85E+00
			8.50		474.46E+00
			9.00		474.07E+00
			9.50		473.70E+00
			10.00		473.32E+00
			10.50		472.95E+00
			11.00		472.57E+00
			11.50		472.16E+00
			12.00		471.74E+00
			12.50		471.30E+00
			13.00		470.87E+00
			13.50		470.46E+00
			14.00		470.06E+00
			14.50		469.69E+00
			15.00		469.32E+00
			15.50		468.93E+00
			16.00		468.52E+00
			16.50		468.05E+00
			17.00		467.56E+00
			17.50		467.02E+00
			18.00		466.47E+00
			18.50		465.91E+00
			19.00		465.33E+00
			19.50		464.72E+00
			20.00		464.08E+00
			20.50		463.37E+00
			21.00		462.64E+00
			21.50		461.87E+00
			22.00		461.10E+00
			22.50		460.34E+00
			23.00		459.59E+00
			23.50		458.88E+00
			24.00		458.16E+00
			24.50		457.44E+00
			25.00		456.68E+00
			25.50		455.87E+00
			26.00		455.03E+00
			26.50		454.14E+00
			27.00		453.23E+00
			27.50		452.29E+00
			28.00		451.32E+00
			28.50		450.32E+00
			29.00		449.28E+00
			29.50		448.18E+00
			30.00		447.07E+00
			30.50		445.92E+00
			31.00		444.77E+00
			31.50		443.62E+00
			32.00		442.50E+00
			32.50		441.42E+00
			33.00		440.37E+00
			33.50		439.35E+00
			34.00		438.35E+00
			34.50		437.38E+00
			35.00		436.35E+00
			35.50		435.22E+00
			36.00		433.91E+00
			36.50		432.28E+00
			37.00		430.78E+00
			37.50		429.52E+00
			38.00		428.18E+00
			38.50		426.72E+00
			39.00		425.04E+00
			39.50		423.02E+00
			40.00		421.07E+00
			40.50		419.23E+00
			41.00		417.12E+00
			41.50		414.55E+00
			42.00		411.29E+00
			42.50		406.88E+00
			43.00		401.44E+00
			43.50		394.16E+00
			44.00		385.76E+00
			44.50		375.39E+00
			45.00		363.10E+00
			45.50		347.42E+00
			46.00		330.43E+00
			46.50		311.13E+00
			47.00		291.01E+00
			47.50		269.42E+00
			48.00		247.62E+00
			48.50		225.41E+00
			49.00		203.47E+00
			49.50		181.99E+00
			50.00		161.57E+00
			50.50		142.90E+00
			51.00		125.40E+00
			51.50		109.81E+00
			52.00		95.577E+00
			52.50		83.542E+00
			53.00		72.741E+00
			53.50		63.792E+00
			54.00		55.786E+00
			54.50		49.322E+00
			55.00		43.480E+00
			55.50		38.746E+00
			56.00		34.512E+00
			56.50		31.169E+00
			57.00		28.282E+00
			57.50		26.139E+00
			58.00		24.235E+00
			58.50		22.756E+00
			59.00		21.472E+00
			59.50		20.534E+00
			60.00		19.667E+00
			60.50		18.929E+00
			61.00		18.254E+00
			61.50		17.684E+00
			62.00		17.132E+00
			62.50		16.610E+00
			63.00		16.115E+00
			63.50		15.661E+00
			64.00		15.226E+00
			64.50		14.821E+00
			65.00		14.443E+00
			65.50		14.108E+00
			66.00		13.782E+00
			66.50		13.470E+00
			67.00		13.148E+00
			67.50		12.806E+00
			68.00		12.494E+00
			68.50		12.232E+00
			69.00		11.961E+00
			69.50		11.676E+00
			70.00		11.394E+00
			70.50		11.115E+00
			71.00		10.864E+00
			71.50		10.663E+00
			72.00		10.482E+00
			72.50		10.339E+00
			73.00		10.154E+00
			73.50		9.8945E+00
			74.00		9.6621E+00
			74.50		9.4735E+00
			75.00		9.3197E+00
			75.50		9.2228E+00
			76.00		9.0945E+00
			76.50		8.9146E+00
			77.00		8.7689E+00
			77.50		8.6788E+00
			78.00		8.5322E+00
			78.50		8.2851E+00
			79.00		8.0864E+00
			79.50		7.9741E+00
			80.00		7.8658E+00
			80.50		7.7656E+00
			81.00		7.6513E+00
			81.50		7.5097E+00
			82.00		7.3662E+00
			82.50		7.2193E+00
			83.00		7.0657E+00
			83.50		6.8989E+00
			84.00		6.7607E+00
			84.50		6.6779E+00
			85.00		6.5907E+00
			85.50		6.4953E+00
			86.00		6.3886E+00
			86.50		6.2620E+00
			87.00		6.1524E+00
			87.50		6.0731E+00
			88.00		5.9868E+00
			88.50		5.8881E+00
			89.00		5.7940E+00
			89.50		5.7079E+00
		END_DATA
	END_SCAN  1
	BEGIN_SCAN  2
		TASK_NAME=tba PDD Profiles
		PROGRAM=WaterTankScans
		COMMENT=FBF_SanPietro
		MEAS_DATE=08-Feb-2021 09:38:10
		LINAC=MRIdian
		MODALITY=X
		ISOCENTER=900.00
		INPLANE_AXIS=Y
		CROSSPLANE_AXIS=X
		DEPTH_AXIS=Depth
		INPLANE_AXIS_DIR=TARGET_GUN
		CROSSPLANE_AXIS_DIR=LEFT_RIGHT
		DEPTH_AXIS_DIR=UP_DOWN
		ENERGY=6.00
		NOMINAL_DMAX=15.00
		SSD=850.00
		SCD=450.00
		WEDGE_ANGLE=0.00
		FIELD_INPLANE=99.60
		FIELD_CROSSPLANE=99.60
		FIELD_TYPE=RECTANGULAR
		GANTRY=0.00
		GANTRY_UPRIGHT_POSITION=0
		GANTRY_ROTATION=CW
		COLL_ANGLE=0.00
		COLL_OFFSET_INPLANE=0.00
		COLL_OFFSET_CROSSPLANE=0.00
		SCAN_DEVICE=BeamScan
		SCAN_DEVICE_SETUP=BARA_LEFT_RIGHT
		ELECTROMETER=BeamScan
		RANGE_FIELD=LOW
		RANGE_REFERENCE=MEDIUM
		DETECTOR=THIMBLE_CHAMBER
		DETECTOR_RADIUS=2.40
		DETECTOR_NAME=A28MR
		DETECTOR_SN=-
		DETECTOR_CALIBRATION=588000000.00
		DETECTOR_IS_CALIBRATED=0
		DETECTOR_REFERENCE=THIMBLE_CHAMBER
		DETECTOR_REFERENCE_RADIUS=2.75
		DETECTOR_REFERENCE_NAME=A28MR
		DETECTOR_REFERENCE_SN=—
		DETECTOR_REFERENCE_IS_CALIBRATED=0
		DETECTOR_REFERENCE_CALIBRATION=303000000.00
		DETECTOR_HV=300.0
		DETECTOR_REFERENCE_HV=300.0
		DETECTOR_ORIENTATION=HORIZONTAL
		FILTER=FFF
		SCAN_SPEED_PROFILE=10.00
		SCAN_PROF_SPEED_DEP=DEPTH
		SCAN_SPEED_PDD=0.00
		SCAN_PDD_SPEED_DEP=ENERGY
		DETECTOR_TYPE=A28MR
		REF_FIELD_DEPTH=220.00
		REF_FIELD_DEFINED=ISOCENTER
		REF_FIELD_INPLANE=100.00
		REF_FIELD_CROSSPLANE=100.00
		REF_SCAN_POSITIONS=-85.00;-84.00;-83.00;-82.00;-81.00;-80.00;-79.00;-78.00;-77.00;-76.00;-75.00;-74.00;-73.00;-72.00;-71.00;-70.00;-69.00;-68.00;-67.00;-66.00;-65.00;-64.00;-63.00;-62.00;-61.00;-60.00;-59.00;-58.00;-57.00;-56.00;-55.00;-54.00;-53.00;-52.00;-51.00;-50.00;-49.00;-48.00;-47.00;-46.00;-45.00;-44.00;-43.00;-42.00;-41.00;-40.00;-39.00;-38.00;-37.00;-36.00;-35.00;-34.00;-33.00;-32.00;-31.00;-30.00;-29.00;-28.00;-27.00;-26.00;-25.00;-24.00;-23.00;-22.00;-21.00;-20.00;-19.00;-18.00;-17.00;-16.00;-15.00;-14.00;-13.00;-12.00;-11.00;-10.00;-9.00;-8.00;-7.00;-6.00;-5.00;-4.00;-3.00;-2.00;-1.00;0.00;1.00;2.00;3.00;4.00;5.00;6.00;7.00;8.00;9.00;10.00;11.00;12.00;13.00;14.00;15.00;16.00;17.00;18.00;19.00;20.00;21.00;22.00;23.00;24.00;25.00;26.00;27.00;28.00;29.00;30.00;31.00;32.00;33.00;34.00;35.00;36.00;37.00;38.00;39.00;40.00;41.00;42.00;43.00;44.00;45.00;46.00;47.00;48.00;49.00;50.00;51.00;52.00;53.00;54.00;55.00;56.00;57.00;58.00;59.00;60.00;61.00;62.00;63.00;64.00;65.00;66.00;67.00;68.00;69.00;70.00;71.00;72.00;73.00;74.00;75.00;76.00;77.00;78.00;79.00;80.00;81.00;82.00;83.00;84.00;85.00;
		REF_OVERSCAN_FACTOR=1.00
		SCAN_CURVETYPE=INPLANE_PROFILE
		SCAN_DEPTH=55.00
		SCAN_OFFAXIS_INPLANE=0.00
		SCAN_OFFAXIS_CROSSPLANE=0.00
		SCAN_ANGLE=0.00
		SCAN_DIAGONAL=NOT_DIAGONAL
		SCAN_DIRECTION=POSITIVE
		MEAS_MEDIUM=WATER
		MEAS_PRESET=MEAS_CONTINUOUS_REFERENCE_SCAN
		MEAS_TIME=0.100
		MEAS_UNIT=A.U.
		INCLINATION_ANGLE=0.00
		PRESSURE=1013.25
		TEMPERATURE=20.00
		NORM_TEMPERATURE=20.00
		CORRECTION_FACTOR=1.0000
		EXPECTED_MAX_DOSE_RATE=3.00
		EPOM_DEPTH_SHIFT=0.2
		EPOM_MODE=SHIFT_PROTOCOL
		CORRECTIONS=SMOOTHED_CORR;CAX_CORR;INTERPOLATED_CORR;
		BEGIN_DATA
			-90.00		8.6964E+00
			-89.50		8.6218E+00
			-89.00		8.6387E+00
			-88.50		8.8186E+00
			-88.00		8.9737E+00
			-87.50		9.0764E+00
			-87.00		9.1954E+00
			-86.50		9.3526E+00
			-86.00		9.5207E+00
			-85.50		9.7141E+00
			-85.00		9.8799E+00
			-84.50		9.9817E+00
			-84.00		10.100E+00
			-83.50		10.255E+00
			-83.00		10.405E+00
			-82.50		10.543E+00
			-82.00		10.677E+00
			-81.50		10.802E+00
			-81.00		10.967E+00
			-80.50		11.215E+00
			-80.00		11.451E+00
			-79.50		11.661E+00
			-79.00		11.840E+00
			-78.50		11.957E+00
			-78.00		12.125E+00
			-77.50		12.412E+00
			-77.00		12.688E+00
			-76.50		12.942E+00
			-76.00		13.185E+00
			-75.50		13.405E+00
			-75.00		13.616E+00
			-74.50		13.801E+00
			-74.00		14.040E+00
			-73.50		14.404E+00
			-73.00		14.760E+00
			-72.50		15.101E+00
			-72.00		15.434E+00
			-71.50		15.746E+00
			-71.00		16.043E+00
			-70.50		16.305E+00
			-70.00		16.625E+00
			-69.50		17.070E+00
			-69.00		17.474E+00
			-68.50		17.801E+00
			-68.00		18.136E+00
			-67.50		18.489E+00
			-67.00		18.877E+00
			-66.50		19.341E+00
			-66.00		19.795E+00
			-65.50		20.227E+00
			-65.00		20.706E+00
			-64.50		21.288E+00
			-64.00		21.894E+00
			-63.50		22.552E+00
			-63.00		23.187E+00
			-62.50		23.766E+00
			-62.00		24.445E+00
			-61.50		25.336E+00
			-61.00		26.243E+00
			-60.50		27.182E+00
			-60.00		28.167E+00
			-59.50		29.249E+00
			-59.00		30.506E+00
			-58.50		32.136E+00
			-58.00		34.062E+00
			-57.50		36.565E+00
			-57.00		39.495E+00
			-56.50		43.255E+00
			-56.00		47.802E+00
			-55.50		53.880E+00
			-55.00		61.067E+00
			-54.50		70.406E+00
			-54.00		80.764E+00
			-53.50		93.285E+00
			-53.00		106.78E+00
			-52.50		122.36E+00
			-52.00		138.36E+00
			-51.50		155.25E+00
			-51.00		172.11E+00
			-50.50		188.90E+00
			-50.00		205.50E+00
			-49.50		221.73E+00
			-49.00		237.32E+00
			-48.50		251.56E+00
			-48.00		264.74E+00
			-47.50		275.66E+00
			-47.00		285.94E+00
			-46.50		294.86E+00
			-46.00		303.11E+00
			-45.50		310.05E+00
			-45.00		316.46E+00
			-44.50		321.95E+00
			-44.00		326.67E+00
			-43.50		330.04E+00
			-43.00		333.39E+00
			-42.50		336.72E+00
			-42.00		339.65E+00
			-41.50		341.81E+00
			-41.00		343.93E+00
			-40.50		345.98E+00
			-40.00		347.86E+00
			-39.50		349.40E+00
			-39.00		350.90E+00
			-38.50		352.30E+00
			-38.00		353.64E+00
			-37.50		354.85E+00
			-37.00		356.02E+00
			-36.50		357.12E+00
			-36.00		358.20E+00
			-35.50		359.25E+00
			-35.00		360.30E+00
			-34.50		361.32E+00
			-34.00		362.34E+00
			-33.50		363.34E+00
			-33.00		364.32E+00
			-32.50		365.28E+00
			-32.00		366.22E+00
			-31.50		367.11E+00
			-31.00		367.98E+00
			-30.50		368.80E+00
			-30.00		369.61E+00
			-29.50		370.40E+00
			-29.00		371.19E+00
			-28.50		371.99E+00
			-28.00		372.78E+00
			-27.50		373.58E+00
			-27.00		374.36E+00
			-26.50		375.09E+00
			-26.00		375.81E+00
			-25.50		376.48E+00
			-25.00		377.13E+00
			-24.50		377.76E+00
			-24.00		378.39E+00
			-23.50		379.01E+00
			-23.00		379.63E+00
			-22.50		380.26E+00
			-22.00		380.89E+00
			-21.50		381.53E+00
			-21.00		382.16E+00
			-20.50		382.80E+00
			-20.00		383.45E+00
			-19.50		384.09E+00
			-19.00		384.74E+00
			-18.50		385.37E+00
			-18.00		385.99E+00
			-17.50		386.57E+00
			-17.00		387.13E+00
			-16.50		387.64E+00
			-16.00		388.12E+00
			-15.50		388.56E+00
			-15.00		388.98E+00
			-14.50		389.37E+00
			-14.00		389.75E+00
			-13.50		390.12E+00
			-13.00		390.48E+00
			-12.50		390.86E+00
			-12.00		391.22E+00
			-11.50		391.59E+00
			-11.00		391.94E+00
			-10.50		392.28E+00
			-10.00		392.60E+00
			-9.50		392.90E+00
			-9.00		393.18E+00
			-8.50		393.44E+00
			-8.00		393.70E+00
			-7.50		393.95E+00
			-7.00		394.21E+00
			-6.50		394.48E+00
			-6.00		394.75E+00
			-5.50		395.04E+00
			-5.00		395.31E+00
			-4.50		395.57E+00
			-4.00		395.82E+00
			-3.50		396.03E+00
			-3.00		396.24E+00
			-2.50		396.42E+00
			-2.00		396.59E+00
			-1.50		396.72E+00
			-1.00		396.82E+00
			-0.50		396.86E+00
			0.00		396.87E+00
			0.50		396.79E+00
			1.00		396.70E+00
			1.50		396.57E+00
			2.00		396.43E+00
			2.50		396.30E+00
			3.00		396.18E+00
			3.50		396.08E+00
			4.00		395.97E+00
			4.50		395.87E+00
			5.00		395.76E+00
			5.50		395.63E+00
			6.00		395.49E+00
			6.50		395.33E+00
			7.00		395.16E+00
			7.50		394.98E+00
			8.00		394.79E+00
			8.50		394.58E+00
			9.00		394.36E+00
			9.50		394.11E+00
			10.00		393.86E+00
			10.50		393.57E+00
			11.00		393.27E+00
			11.50		392.94E+00
			12.00		392.60E+00
			12.50		392.20E+00
			13.00		391.80E+00
			13.50		391.36E+00
			14.00		390.91E+00
			14.50		390.44E+00
			15.00		389.97E+00
			15.50		389.50E+00
			16.00		389.03E+00
			16.50		388.56E+00
			17.00		388.09E+00
			17.50		387.62E+00
			18.00		387.16E+00
			18.50		386.69E+00
			19.00		386.22E+00
			19.50		385.73E+00
			20.00		385.22E+00
			20.50		384.68E+00
			21.00		384.12E+00
			21.50		383.54E+00
			22.00		382.95E+00
			22.50		382.34E+00
			23.00		381.72E+00
			23.50		381.06E+00
			24.00		380.39E+00
			24.50		379.69E+00
			25.00		378.98E+00
			25.50		378.25E+00
			26.00		377.51E+00
			26.50		376.77E+00
			27.00		376.01E+00
			27.50		375.22E+00
			28.00		374.43E+00
			28.50		373.61E+00
			29.00		372.80E+00
			29.50		372.00E+00
			30.00		371.20E+00
			30.50		370.41E+00
			31.00		369.60E+00
			31.50		368.76E+00
			32.00		367.89E+00
			32.50		366.96E+00
			33.00		366.00E+00
			33.50		364.99E+00
			34.00		363.98E+00
			34.50		362.96E+00
			35.00		361.96E+00
			35.50		360.99E+00
			36.00		360.02E+00
			36.50		359.05E+00
			37.00		358.06E+00
			37.50		357.02E+00
			38.00		355.96E+00
			38.50		354.84E+00
			39.00		353.61E+00
			39.50		352.13E+00
			40.00		350.67E+00
			40.50		349.25E+00
			41.00		347.64E+00
			41.50		345.65E+00
			42.00		343.68E+00
			42.50		341.74E+00
			43.00		339.47E+00
			43.50		336.56E+00
			44.00		333.40E+00
			44.50		329.73E+00
			45.00		325.41E+00
			45.50		319.56E+00
			46.00		312.74E+00
			46.50		303.86E+00
			47.00		294.04E+00
			47.50		282.03E+00
			48.00		269.06E+00
			48.50		254.20E+00
			49.00		238.80E+00
			49.50		222.25E+00
			50.00		205.50E+00
			50.50		188.36E+00
			51.00		171.45E+00
			51.50		154.95E+00
			52.00		139.22E+00
			52.50		124.97E+00
			53.00		111.52E+00
			53.50		99.618E+00
			54.00		88.527E+00
			54.50		79.015E+00
			55.00		70.320E+00
			55.50		63.210E+00
			56.00		56.720E+00
			56.50		51.549E+00
			57.00		46.719E+00
			57.50		42.615E+00
			58.00		38.983E+00
			58.50		36.267E+00
			59.00		33.840E+00
			59.50		32.027E+00
			60.00		30.350E+00
			60.50		28.934E+00
			61.00		27.632E+00
			61.50		26.552E+00
			62.00		25.553E+00
			62.50		24.710E+00
			63.00		23.921E+00
			63.50		23.226E+00
			64.00		22.572E+00
			64.50		22.000E+00
			65.00		21.476E+00
			65.50		21.041E+00
			66.00		20.555E+00
			66.50		19.969E+00
			67.00		19.399E+00
			67.50		18.859E+00
			68.00		18.399E+00
			68.50		18.097E+00
			69.00		17.769E+00
			69.50		17.387E+00
			70.00		17.010E+00
			70.50		16.640E+00
			71.00		16.278E+00
			71.50		15.935E+00
			72.00		15.592E+00
			72.50		15.251E+00
			73.00		14.925E+00
			73.50		14.632E+00
			74.00		14.352E+00
			74.50		14.098E+00
			75.00		13.844E+00
			75.50		13.589E+00
			76.00		13.345E+00
			76.50		13.123E+00
			77.00		12.911E+00
			77.50		12.718E+00
			78.00		12.481E+00
			78.50		12.160E+00
			79.00		11.886E+00
			79.50		11.713E+00
			80.00		11.503E+00
			80.50		11.215E+00
			81.00		10.978E+00
			81.50		10.861E+00
			82.00		10.731E+00
			82.50		10.573E+00
			83.00		10.397E+00
			83.50		10.176E+00
			84.00		9.9756E+00
			84.50		9.8210E+00
			85.00		9.6601E+00
			85.50		9.4856E+00
			86.00		9.3294E+00
			86.50		9.2120E+00
			87.00		9.0712E+00
			87.50		8.8852E+00
			88.00		8.7190E+00
			88.50		8.5950E+00
			89.00		8.4662E+00
			89.50		8.3274E+00
		END_DATA
	END_SCAN  2
	BEGIN_SCAN  3
		TASK_NAME=tba PDD Profiles
		PROGRAM=WaterTankScans
		COMMENT=FBF_SanPietro
		MEAS_DATE=08-Feb-2021 09:38:10
		LINAC=MRIdian
		MODALITY=X
		ISOCENTER=900.00
		INPLANE_AXIS=Y
		CROSSPLANE_AXIS=X
		DEPTH_AXIS=Depth
		INPLANE_AXIS_DIR=TARGET_GUN
		CROSSPLANE_AXIS_DIR=LEFT_RIGHT
		DEPTH_AXIS_DIR=UP_DOWN
		ENERGY=6.00
		NOMINAL_DMAX=15.00
		SSD=850.00
		SCD=450.00
		WEDGE_ANGLE=0.00
		FIELD_INPLANE=99.60
		FIELD_CROSSPLANE=99.60
		FIELD_TYPE=RECTANGULAR
		GANTRY=0.00
		GANTRY_UPRIGHT_POSITION=0
		GANTRY_ROTATION=CW
		COLL_ANGLE=0.00
		COLL_OFFSET_INPLANE=0.00
		COLL_OFFSET_CROSSPLANE=0.00
		SCAN_DEVICE=BeamScan
		SCAN_DEVICE_SETUP=BARA_LEFT_RIGHT
		ELECTROMETER=BeamScan
		RANGE_FIELD=LOW
		RANGE_REFERENCE=MEDIUM
		DETECTOR=THIMBLE_CHAMBER
		DETECTOR_RADIUS=2.40
		DETECTOR_NAME=A28MR
		DETECTOR_SN=-
		DETECTOR_CALIBRATION=588000000.00
		DETECTOR_IS_CALIBRATED=0
		DETECTOR_REFERENCE=THIMBLE_CHAMBER
		DETECTOR_REFERENCE_RADIUS=2.75
		DETECTOR_REFERENCE_NAME=A28MR
		DETECTOR_REFERENCE_SN=—
		DETECTOR_REFERENCE_IS_CALIBRATED=0
		DETECTOR_REFERENCE_CALIBRATION=303000000.00
		DETECTOR_HV=300.0
		DETECTOR_REFERENCE_HV=300.0
		DETECTOR_ORIENTATION=HORIZONTAL
		FILTER=FFF
		SCAN_SPEED_PROFILE=10.00
		SCAN_PROF_SPEED_DEP=DEPTH
		SCAN_SPEED_PDD=0.00
		SCAN_PDD_SPEED_DEP=ENERGY
		DETECTOR_TYPE=A28MR
		REF_FIELD_DEPTH=220.00
		REF_FIELD_DEFINED=ISOCENTER
		REF_FIELD_INPLANE=100.00
		REF_FIELD_CROSSPLANE=100.00
		REF_SCAN_POSITIONS=-85.00;-84.00;-83.00;-82.00;-81.00;-80.00;-79.00;-78.00;-77.00;-76.00;-75.00;-74.00;-73.00;-72.00;-71.00;-70.00;-69.00;-68.00;-67.00;-66.00;-65.00;-64.00;-63.00;-62.00;-61.00;-60.00;-59.00;-58.00;-57.00;-56.00;-55.00;-54.00;-53.00;-52.00;-51.00;-50.00;-49.00;-48.00;-47.00;-46.00;-45.00;-44.00;-43.00;-42.00;-41.00;-40.00;-39.00;-38.00;-37.00;-36.00;-35.00;-34.00;-33.00;-32.00;-31.00;-30.00;-29.00;-28.00;-27.00;-26.00;-25.00;-24.00;-23.00;-22.00;-21.00;-20.00;-19.00;-18.00;-17.00;-16.00;-15.00;-14.00;-13.00;-12.00;-11.00;-10.00;-9.00;-8.00;-7.00;-6.00;-5.00;-4.00;-3.00;-2.00;-1.00;0.00;1.00;2.00;3.00;4.00;5.00;6.00;7.00;8.00;9.00;10.00;11.00;12.00;13.00;14.00;15.00;16.00;17.00;18.00;19.00;20.00;21.00;22.00;23.00;24.00;25.00;26.00;27.00;28.00;29.00;30.00;31.00;32.00;33.00;34.00;35.00;36.00;37.00;38.00;39.00;40.00;41.00;42.00;43.00;44.00;45.00;46.00;47.00;48.00;49.00;50.00;51.00;52.00;53.00;54.00;55.00;56.00;57.00;58.00;59.00;60.00;61.00;62.00;63.00;64.00;65.00;66.00;67.00;68.00;69.00;70.00;71.00;72.00;73.00;74.00;75.00;76.00;77.00;78.00;79.00;80.00;81.00;82.00;83.00;84.00;85.00;
		REF_OVERSCAN_FACTOR=1.00
		SCAN_CURVETYPE=INPLANE_PROFILE
		SCAN_DEPTH=100.00
		SCAN_OFFAXIS_INPLANE=0.00
		SCAN_OFFAXIS_CROSSPLANE=0.00
		SCAN_ANGLE=0.00
		SCAN_DIAGONAL=NOT_DIAGONAL
		SCAN_DIRECTION=POSITIVE
		MEAS_MEDIUM=WATER
		MEAS_PRESET=MEAS_CONTINUOUS_REFERENCE_SCAN
		MEAS_TIME=0.100
		MEAS_UNIT=A.U.
		INCLINATION_ANGLE=0.00
		PRESSURE=1013.25
		TEMPERATURE=20.00
		NORM_TEMPERATURE=20.00
		CORRECTION_FACTOR=1.0000
		EXPECTED_MAX_DOSE_RATE=3.00
		EPOM_DEPTH_SHIFT=0.2
		EPOM_MODE=SHIFT_PROTOCOL
		CORRECTIONS=SMOOTHED_CORR;CAX_CORR;INTERPOLATED_CORR;
		BEGIN_DATA
			-90.00		11.125E+00
			-89.50		11.114E+00
			-89.00		11.145E+00
			-88.50		11.325E+00
			-88.00		11.500E+00
			-87.50		11.663E+00
			-87.00		11.829E+00
			-86.50		12.008E+00
			-86.00		12.194E+00
			-85.50		12.404E+00
			-85.00		12.604E+00
			-84.50		12.755E+00
			-84.00		12.920E+00
			-83.50		13.156E+00
			-83.00		13.389E+00
			-82.50		13.606E+00
			-82.00		13.823E+00
			-81.50		14.043E+00
			-81.00		14.263E+00
			-80.50		14.484E+00
			-80.00		14.702E+00
			-79.50		14.911E+00
			-79.00		15.128E+00
			-78.50		15.379E+00
			-78.00		15.630E+00
			-77.50		15.879E+00
			-77.00		16.134E+00
			-76.50		16.408E+00
			-76.00		16.688E+00
			-75.50		16.994E+00
			-75.00		17.312E+00
			-74.50		17.681E+00
			-74.00		18.033E+00
			-73.50		18.306E+00
			-73.00		18.582E+00
			-72.50		18.872E+00
			-72.00		19.184E+00
			-71.50		19.612E+00
			-71.00		20.022E+00
			-70.50		20.355E+00
			-70.00		20.716E+00
			-69.50		21.193E+00
			-69.00		21.650E+00
			-68.50		22.029E+00
			-68.00		22.428E+00
			-67.50		22.906E+00
			-67.00		23.402E+00
			-66.50		23.971E+00
			-66.00		24.517E+00
			-65.50		24.965E+00
			-65.00		25.455E+00
			-64.50		26.113E+00
			-64.00		26.789E+00
			-63.50		27.538E+00
			-63.00		28.337E+00
			-62.50		29.362E+00
			-62.00		30.418E+00
			-61.50		31.601E+00
			-61.00		32.915E+00
			-60.50		34.823E+00
			-60.00		36.870E+00
			-59.50		39.406E+00
			-59.00		42.267E+00
			-58.50		46.283E+00
			-58.00		50.696E+00
			-57.50		56.699E+00
			-57.00		63.252E+00
			-56.50		71.754E+00
			-56.00		80.670E+00
			-55.50		91.058E+00
			-55.00		101.66E+00
			-54.50		113.05E+00
			-54.00		124.48E+00
			-53.50		136.12E+00
			-53.00		147.80E+00
			-52.50		159.60E+00
			-52.00		171.12E+00
			-51.50		181.54E+00
			-51.00		191.66E+00
			-50.50		200.63E+00
			-50.00		209.26E+00
			-49.50		216.58E+00
			-49.00		223.52E+00
			-48.50		228.90E+00
			-48.00		234.03E+00
			-47.50		238.16E+00
			-47.00		242.13E+00
			-46.50		245.50E+00
			-46.00		248.68E+00
			-45.50		251.22E+00
			-45.00		253.70E+00
			-44.50		255.96E+00
			-44.00		258.08E+00
			-43.50		259.66E+00
			-43.00		261.17E+00
			-42.50		262.37E+00
			-42.00		263.57E+00
			-41.50		264.74E+00
			-41.00		265.89E+00
			-40.50		266.96E+00
			-40.00		268.02E+00
			-39.50		269.02E+00
			-39.00		269.99E+00
			-38.50		270.84E+00
			-38.00		271.66E+00
			-37.50		272.40E+00
			-37.00		273.13E+00
			-36.50		273.86E+00
			-36.00		274.60E+00
			-35.50		275.33E+00
			-35.00		276.06E+00
			-34.50		276.80E+00
			-34.00		277.53E+00
			-33.50		278.26E+00
			-33.00		278.98E+00
			-32.50		279.70E+00
			-32.00		280.41E+00
			-31.50		281.12E+00
			-31.00		281.82E+00
			-30.50		282.50E+00
			-30.00		283.18E+00
			-29.50		283.84E+00
			-29.00		284.49E+00
			-28.50		285.11E+00
			-28.00		285.73E+00
			-27.50		286.30E+00
			-27.00		286.87E+00
			-26.50		287.40E+00
			-26.00		287.92E+00
			-25.50		288.42E+00
			-25.00		288.91E+00
			-24.50		289.40E+00
			-24.00		289.88E+00
			-23.50		290.37E+00
			-23.00		290.86E+00
			-22.50		291.35E+00
			-22.00		291.84E+00
			-21.50		292.33E+00
			-21.00		292.82E+00
			-20.50		293.31E+00
			-20.00		293.79E+00
			-19.50		294.25E+00
			-19.00		294.71E+00
			-18.50		295.14E+00
			-18.00		295.56E+00
			-17.50		295.93E+00
			-17.00		296.30E+00
			-16.50		296.62E+00
			-16.00		296.94E+00
			-15.50		297.23E+00
			-15.00		297.53E+00
			-14.50		297.83E+00
			-14.00		298.13E+00
			-13.50		298.45E+00
			-13.00		298.77E+00
			-12.50		299.10E+00
			-12.00		299.42E+00
			-11.50		299.72E+00
			-11.00		300.00E+00
			-10.50		300.24E+00
			-10.00		300.48E+00
			-9.50		300.66E+00
			-9.00		300.84E+00
			-8.50		301.00E+00
			-8.00		301.16E+00
			-7.50		301.34E+00
			-7.00		301.52E+00
			-6.50		301.74E+00
			-6.00		301.95E+00
			-5.50		302.17E+00
			-5.00		302.38E+00
			-4.50		302.56E+00
			-4.00		302.74E+00
			-3.50		302.86E+00
			-3.00		302.98E+00
			-2.50		303.08E+00
			-2.00		303.17E+00
			-1.50		303.24E+00
			-1.00		303.32E+00
			-0.50		303.38E+00
			0.00		303.44E+00
			0.50		303.50E+00
			1.00		303.55E+00
			1.50		303.58E+00
			2.00		303.60E+00
			2.50		303.59E+00
			3.00		303.57E+00
			3.50		303.50E+00
			4.00		303.41E+00
			4.50		303.29E+00
			5.00		303.16E+00
			5.50		303.02E+00
			6.00		302.88E+00
			6.50		302.74E+00
			7.00		302.60E+00
			7.50		302.45E+00
			8.00		302.31E+00
			8.50		302.15E+00
			9.00		301.98E+00
			9.50		301.80E+00
			10.00		301.61E+00
			10.50		301.40E+00
			11.00		301.18E+00
			11.50		300.94E+00
			12.00		300.69E+00
			12.50		300.43E+00
			13.00		300.16E+00
			13.50		299.87E+00
			14.00		299.57E+00
			14.50		299.24E+00
			15.00		298.90E+00
			15.50		298.53E+00
			16.00		298.17E+00
			16.50		297.79E+00
			17.00		297.42E+00
			17.50		297.03E+00
			18.00		296.64E+00
			18.50		296.23E+00
			19.00		295.80E+00
			19.50		295.35E+00
			20.00		294.89E+00
			20.50		294.41E+00
			21.00		293.93E+00
			21.50		293.46E+00
			22.00		292.98E+00
			22.50		292.51E+00
			23.00		292.03E+00
			23.50		291.54E+00
			24.00		291.04E+00
			24.50		290.52E+00
			25.00		289.99E+00
			25.50		289.44E+00
			26.00		288.88E+00
