BEGIN_SCAN_DATA
	FORMAT=CC-Export V1.9                  
	FILE_CREATION_DATE=26-Jul-2022 10:32:29
	LAST_MODIFIED=26-Jul-2022 10:32:29
	BEGIN_SCAN  1
		TASK_NAME=tba PDD Profiles
		PROGRAM=WaterTankScans
		COMMENT=PDD + 5x X
		MEAS_DATE=08-Feb-2021 10:10:54
		LINAC=TRUEBEAMSN4791
		MODALITY=X
		ISOCENTER=1000.00
		INPLANE_AXIS=Y
		CROSSPLANE_AXIS=X
		DEPTH_AXIS=Depth
		INPLANE_AXIS_DIR=TARGET_GUN
		CROSSPLANE_AXIS_DIR=LEFT_RIGHT
		DEPTH_AXIS_DIR=UP_DOWN
		ENERGY=6.00
		NOMINAL_DMAX=15.00
		SSD=900.00
		SCD=450.00
		WEDGE_ANGLE=0.00
		FIELD_INPLANE=200.00
		FIELD_CROSSPLANE=200.00
		FIELD_TYPE=RECTANGULAR
		GANTRY=0.00
		GANTRY_UPRIGHT_POSITION=0
		GANTRY_ROTATION=CW
		COLL_ANGLE=0.00
		COLL_OFFSET_INPLANE=0.00
		COLL_OFFSET_CROSSPLANE=0.00
		SCAN_DEVICE=BeamScan
		SCAN_DEVICE_SETUP=BARA_LEFT_RIGHT
		ELECTROMETER=BeamScan
		RANGE_FIELD=LOW
		RANGE_REFERENCE=MEDIUM
		DETECTOR=THIMBLE_CHAMBER
		DETECTOR_SUBCODE=SEMIFLEX
		DETECTOR_RADIUS=2.40
		DETECTOR_NAME=PTW 31021 Semiflex 3D (1)
		DETECTOR_SN=142316
		DETECTOR_CALIBRATION=588000000.00
		DETECTOR_IS_CALIBRATED=1
		DETECTOR_REFERENCE=THIMBLE_CHAMBER
		DETECTOR_REFERENCE_SUBCODE=SEMIFLEX
		DETECTOR_REFERENCE_RADIUS=2.75
		DETECTOR_REFERENCE_NAME=PTW 31010 Semiflex (1)
		DETECTOR_REFERENCE_SN=—
		DETECTOR_REFERENCE_IS_CALIBRATED=0
		DETECTOR_REFERENCE_CALIBRATION=303000000.00
		DETECTOR_HV=400.0
		DETECTOR_REFERENCE_HV=400.0
		DETECTOR_ORIENTATION=HORIZONTAL
		FILTER=FF
		SCAN_SPEED_PROFILE=12.50
		SCAN_PROF_SPEED_DEP=DEPTH
		SCAN_SPEED_PDD=12.50
		SCAN_PDD_SPEED_DEP=ENERGY
		DETECTOR_TYPE=T31021
		REF_FIELD_DEPTH=100.00
		REF_FIELD_DEFINED=ISOCENTER
		REF_FIELD_INPLANE=100.00
		REF_FIELD_CROSSPLANE=100.00
		REF_SCAN_POSITIONS=-85.00;-84.00;-83.00;-82.00;-81.00;-80.00;-79.00;-78.00;-77.00;-76.00;-75.00;-74.00;-73.00;-72.00;-71.00;-70.00;-69.00;-68.00;-67.00;-66.00;-65.00;-64.00;-63.00;-62.00;-61.00;-60.00;-59.00;-58.00;-57.00;-56.00;-55.00;-54.00;-53.00;-52.00;-51.00;-50.00;-49.00;-48.00;-47.00;-46.00;-45.00;-44.00;-43.00;-42.00;-41.00;-40.00;-39.00;-38.00;-37.00;-36.00;-35.00;-34.00;-33.00;-32.00;-31.00;-30.00;-29.00;-28.00;-27.00;-26.00;-25.00;-24.00;-23.00;-22.00;-21.00;-20.00;-19.00;-18.00;-17.00;-16.00;-15.00;-14.00;-13.00;-12.00;-11.00;-10.00;-9.00;-8.00;-7.00;-6.00;-5.00;-4.00;-3.00;-2.00;-1.00;0.00;1.00;2.00;3.00;4.00;5.00;6.00;7.00;8.00;9.00;10.00;11.00;12.00;13.00;14.00;15.00;16.00;17.00;18.00;19.00;20.00;21.00;22.00;23.00;24.00;25.00;26.00;27.00;28.00;29.00;30.00;31.00;32.00;33.00;34.00;35.00;36.00;37.00;38.00;39.00;40.00;41.00;42.00;43.00;44.00;45.00;46.00;47.00;48.00;49.00;50.00;51.00;52.00;53.00;54.00;55.00;56.00;57.00;58.00;59.00;60.00;61.00;62.00;63.00;64.00;65.00;66.00;67.00;68.00;69.00;70.00;71.00;72.00;73.00;74.00;75.00;76.00;77.00;78.00;79.00;80.00;81.00;82.00;83.00;84.00;85.00;
		REF_OVERSCAN_FACTOR=1.00
		SCAN_CURVETYPE=CROSSPLANE_PROFILE
		SCAN_DEPTH=15.00
		SCAN_OFFAXIS_INPLANE=0.00
		SCAN_OFFAXIS_CROSSPLANE=0.00
		SCAN_ANGLE=0.00
		SCAN_DIAGONAL=NOT_DIAGONAL
		SCAN_DIRECTION=POSITIVE
		MEAS_MEDIUM=WATER
		MEAS_PRESET=MEAS_CONTINUOUS_REFERENCE_SCAN
		MEAS_TIME=0.080
		MEAS_UNIT=A.U.
		INCLINATION_ANGLE=0.00
		PRESSURE=1013.25
		TEMPERATURE=20.00
		NORM_TEMPERATURE=20.00
		CORRECTION_FACTOR=1.0000
		EXPECTED_MAX_DOSE_RATE=3.00
		EPOM_DEPTH_SHIFT=0.2
		EPOM_MODE=SHIFT_PROTOCOL
		CORRECTIONS=SMOOTHED_CORR;CAX_CORR;SYMMETRY_CORR;INTERPOLATED_CORR;
		BEGIN_DATA
			-124.00		53.273E-03
			-123.50		54.121E-03
			-123.00		54.969E-03
			-122.50		55.818E-03
			-122.00		56.667E-03
			-121.50		57.503E-03
			-121.00		58.340E-03
			-120.50		59.054E-03
			-120.00		59.767E-03
			-119.50		60.879E-03
			-119.00		61.992E-03
			-118.50		62.552E-03
			-118.00		63.112E-03
			-117.50		64.011E-03
			-117.00		64.909E-03
			-116.50		66.098E-03
			-116.00		67.287E-03
			-115.50		68.359E-03
			-115.00		69.432E-03
			-114.50		70.354E-03
			-114.00		71.276E-03
			-113.50		72.457E-03
			-113.00		73.639E-03
			-112.50		74.738E-03
			-112.00		75.837E-03
			-111.50		77.093E-03
			-111.00		78.350E-03
			-110.50		79.647E-03
			-110.00		80.945E-03
			-109.50		82.267E-03
			-109.00		83.589E-03
			-108.50		85.017E-03
			-108.00		86.445E-03
			-107.50		87.843E-03
			-107.00		89.241E-03
			-106.50		90.841E-03
			-106.00		92.441E-03
			-105.50		94.007E-03
			-105.00		95.573E-03
			-104.50		97.266E-03
			-104.00		98.959E-03
			-103.50		101.15E-03
			-103.00		103.34E-03
			-102.50		105.70E-03
			-102.00		108.05E-03
			-101.50		110.91E-03
			-101.00		113.77E-03
			-100.50		117.53E-03
			-100.00		121.30E-03
			-99.50		126.15E-03
			-99.00		131.00E-03
			-98.50		137.19E-03
			-98.00		143.38E-03
			-97.50		152.84E-03
			-97.00		162.31E-03
			-96.50		179.19E-03
			-96.00		196.06E-03
			-95.50		227.41E-03
			-95.00		258.77E-03
			-94.50		315.80E-03
			-94.00		372.83E-03
			-93.50		455.04E-03
			-93.00		537.24E-03
			-92.50		635.28E-03
			-92.00		733.31E-03
			-91.50		838.80E-03
			-91.00		944.30E-03
			-90.50		1.0396E+00
			-90.00		1.1349E+00
			-89.50		1.2077E+00
			-89.00		1.2806E+00
			-88.50		1.3257E+00
			-88.00		1.3708E+00
			-87.50		1.3934E+00
			-87.00		1.4160E+00
			-86.50		1.4304E+00
			-86.00		1.4447E+00
			-85.50		1.4527E+00
			-85.00		1.4606E+00
			-84.50		1.4654E+00
			-84.00		1.4702E+00
			-83.50		1.4744E+00
			-83.00		1.4786E+00
			-82.50		1.4815E+00
			-82.00		1.4844E+00
			-81.50		1.4866E+00
			-81.00		1.4887E+00
			-80.50		1.4902E+00
			-80.00		1.4918E+00
			-79.50		1.4930E+00
			-79.00		1.4943E+00
			-78.50		1.4954E+00
			-78.00		1.4964E+00
			-77.50		1.4973E+00
			-77.00		1.4983E+00
			-76.50		1.4992E+00
			-76.00		1.5001E+00
			-75.50		1.5008E+00
			-75.00		1.5015E+00
			-74.50		1.5020E+00
			-74.00		1.5026E+00
			-73.50		1.5029E+00
			-73.00		1.5033E+00
			-72.50		1.5037E+00
			-72.00		1.5041E+00
			-71.50		1.5044E+00
			-71.00		1.5048E+00
			-70.50		1.5051E+00
			-70.00		1.5055E+00
			-69.50		1.5059E+00
			-69.00		1.5064E+00
			-68.50		1.5067E+00
			-68.00		1.5070E+00
			-67.50		1.5073E+00
			-67.00		1.5076E+00
			-66.50		1.5079E+00
			-66.00		1.5083E+00
			-65.50		1.5084E+00
			-65.00		1.5085E+00
			-64.50		1.5086E+00
			-64.00		1.5087E+00
			-63.50		1.5089E+00
			-63.00		1.5092E+00
			-62.50		1.5095E+00
			-62.00		1.5098E+00
			-61.50		1.5096E+00
			-61.00		1.5095E+00
			-60.50		1.5092E+00
			-60.00		1.5090E+00
			-59.50		1.5092E+00
			-59.00		1.5094E+00
			-58.50		1.5098E+00
			-58.00		1.5101E+00
			-57.50		1.5101E+00
			-57.00		1.5101E+00
			-56.50		1.5096E+00
			-56.00		1.5092E+00
			-55.50		1.5090E+00
			-55.00		1.5088E+00
			-54.50		1.5089E+00
			-54.00		1.5089E+00
			-53.50		1.5087E+00
			-53.00		1.5085E+00
			-52.50		1.5081E+00
			-52.00		1.5078E+00
			-51.50		1.5078E+00
			-51.00		1.5078E+00
			-50.50		1.5081E+00
			-50.00		1.5085E+00
			-49.50		1.5087E+00
			-49.00		1.5089E+00
			-48.50		1.5091E+00
			-48.00		1.5092E+00
			-47.50		1.5094E+00
			-47.00		1.5095E+00
			-46.50		1.5094E+00
			-46.00		1.5092E+00
			-45.50		1.5087E+00
			-45.00		1.5083E+00
			-44.50		1.5079E+00
			-44.00		1.5075E+00
			-43.50		1.5071E+00
			-43.00		1.5066E+00
			-42.50		1.5060E+00
			-42.00		1.5055E+00
			-41.50		1.5049E+00
			-41.00		1.5043E+00
			-40.50		1.5040E+00
			-40.00		1.5037E+00
			-39.50		1.5033E+00
			-39.00		1.5029E+00
			-38.50		1.5024E+00
			-38.00		1.5020E+00
			-37.50		1.5015E+00
			-37.00		1.5010E+00
			-36.50		1.5005E+00
			-36.00		1.4999E+00
			-35.50		1.4992E+00
			-35.00		1.4985E+00
			-34.50		1.4979E+00
			-34.00		1.4973E+00
			-33.50		1.4970E+00
			-33.00		1.4966E+00
			-32.50		1.4963E+00
			-32.00		1.4959E+00
			-31.50		1.4954E+00
			-31.00		1.4948E+00
			-30.50		1.4941E+00
			-30.00		1.4934E+00
			-29.50		1.4928E+00
			-29.00		1.4922E+00
			-28.50		1.4919E+00
			-28.00		1.4915E+00
			-27.50		1.4913E+00
			-27.00		1.4911E+00
			-26.50		1.4912E+00
			-26.00		1.4913E+00
			-25.50		1.4915E+00
			-25.00		1.4916E+00
			-24.50		1.4917E+00
			-24.00		1.4917E+00
			-23.50		1.4915E+00
			-23.00		1.4913E+00
			-22.50		1.4912E+00
			-22.00		1.4911E+00
			-21.50		1.4911E+00
			-21.00		1.4911E+00
			-20.50		1.4908E+00
			-20.00		1.4906E+00
			-19.50		1.4902E+00
			-19.00		1.4899E+00
			-18.50		1.4897E+00
			-18.00		1.4894E+00
			-17.50		1.4892E+00
			-17.00		1.4890E+00
			-16.50		1.4887E+00
			-16.00		1.4884E+00
			-15.50		1.4878E+00
			-15.00		1.4873E+00
			-14.50		1.4866E+00
			-14.00		1.4860E+00
			-13.50		1.4855E+00
			-13.00		1.4850E+00
			-12.50		1.4847E+00
			-12.00		1.4844E+00
			-11.50		1.4843E+00
			-11.00		1.4841E+00
			-10.50		1.4837E+00
			-10.00		1.4834E+00
			-9.50		1.4832E+00
			-9.00		1.4829E+00
			-8.50		1.4826E+00
			-8.00		1.4823E+00
			-7.50		1.4820E+00
			-7.00		1.4818E+00
			-6.50		1.4813E+00
			-6.00		1.4809E+00
			-5.50		1.4805E+00
			-5.00		1.4801E+00
			-4.50		1.4799E+00
			-4.00		1.4796E+00
			-3.50		1.4794E+00
			-3.00		1.4792E+00
			-2.50		1.4790E+00
			-2.00		1.4789E+00
			-1.50		1.4790E+00
			-1.00		1.4790E+00
			-0.50		1.4790E+00
			0.00		1.4791E+00
			0.50		1.4790E+00
			1.00		1.4790E+00
			1.50		1.4790E+00
			2.00		1.4789E+00
			2.50		1.4790E+00
			3.00		1.4792E+00
			3.50		1.4794E+00
			4.00		1.4796E+00
			4.50		1.4799E+00
			5.00		1.4801E+00
			5.50		1.4805E+00
			6.00		1.4809E+00
			6.50		1.4813E+00
			7.00		1.4818E+00
			7.50		1.4820E+00
			8.00		1.4823E+00
			8.50		1.4826E+00
			9.00		1.4829E+00
			9.50		1.4832E+00
			10.00		1.4834E+00
			10.50		1.4837E+00
			11.00		1.4841E+00
			11.50		1.4843E+00
			12.00		1.4844E+00
			12.50		1.4847E+00
			13.00		1.4850E+00
			13.50		1.4855E+00
			14.00		1.4860E+00
			14.50		1.4866E+00
			15.00		1.4873E+00
			15.50		1.4878E+00
			16.00		1.4884E+00
			16.50		1.4887E+00
			17.00		1.4890E+00
			17.50		1.4892E+00
			18.00		1.4894E+00
			18.50		1.4897E+00
			19.00		1.4899E+00
			19.50		1.4902E+00
			20.00		1.4906E+00
			20.50		1.4908E+00
			21.00		1.4911E+00
			21.50		1.4911E+00
			22.00		1.4911E+00
			22.50		1.4912E+00
			23.00		1.4913E+00
			23.50		1.4915E+00
			24.00		1.4917E+00
			24.50		1.4917E+00
			25.00		1.4916E+00
			25.50		1.4915E+00
			26.00		1.4913E+00
			26.50		1.4912E+00
			27.00		1.4911E+00
			27.50		1.4913E+00
			28.00		1.4915E+00
			28.50		1.4919E+00
			29.00		1.4922E+00
			29.50		1.4928E+00
			30.00		1.4934E+00
			30.50		1.4941E+00
			31.00		1.4948E+00
			31.50		1.4954E+00
			32.00		1.4959E+00
			32.50		1.4963E+00
			33.00		1.4966E+00
			33.50		1.4970E+00
			34.00		1.4973E+00
			34.50		1.4979E+00
			35.00		1.4985E+00
			35.50		1.4992E+00
			36.00		1.4999E+00
			36.50		1.5005E+00
			37.00		1.5010E+00
			37.50		1.5015E+00
			38.00		1.5020E+00
			38.50		1.5024E+00
			39.00		1.5029E+00
			39.50		1.5033E+00
			40.00		1.5037E+00
			40.50		1.5040E+00
			41.00		1.5043E+00
			41.50		1.5049E+00
			42.00		1.5055E+00
			42.50		1.5060E+00
			43.00		1.5066E+00
			43.50		1.5071E+00
			44.00		1.5075E+00
			44.50		1.5079E+00
			45.00		1.5083E+00
			45.50		1.5087E+00
			46.00		1.5092E+00
			46.50		1.5094E+00
			47.00		1.5095E+00
			47.50		1.5094E+00
			48.00		1.5092E+00
			48.50		1.5091E+00
			49.00		1.5089E+00
			49.50		1.5087E+00
			50.00		1.5085E+00
			50.50		1.5081E+00
			51.00		1.5078E+00
			51.50		1.5078E+00
			52.00		1.5078E+00
			52.50		1.5081E+00
			53.00		1.5085E+00
			53.50		1.5087E+00
			54.00		1.5089E+00
			54.50		1.5089E+00
			55.00		1.5088E+00
			55.50		1.5090E+00
			56.00		1.5092E+00
			56.50		1.5096E+00
			57.00		1.5101E+00
			57.50		1.5101E+00
			58.00		1.5101E+00
			58.50		1.5098E+00
			59.00		1.5094E+00
			59.50		1.5092E+00
			60.00		1.5090E+00
			60.50		1.5092E+00
			61.00		1.5095E+00
			61.50		1.5096E+00
			62.00		1.5098E+00
			62.50		1.5095E+00
			63.00		1.5092E+00
			63.50		1.5089E+00
			64.00		1.5087E+00
			64.50		1.5086E+00
			65.00		1.5085E+00
			65.50		1.5084E+00
			66.00		1.5083E+00
			66.50		1.5079E+00
			67.00		1.5076E+00
			67.50		1.5073E+00
			68.00		1.5070E+00
			68.50		1.5067E+00
			69.00		1.5064E+00
			69.50		1.5059E+00
			70.00		1.5055E+00
			70.50		1.5051E+00
			71.00		1.5048E+00
			71.50		1.5044E+00
			72.00		1.5041E+00
			72.50		1.5037E+00
			73.00		1.5033E+00
			73.50		1.5029E+00
			74.00		1.5026E+00
			74.50		1.5020E+00
			75.00		1.5015E+00
			75.50		1.5008E+00
			76.00		1.5001E+00
			76.50		1.4992E+00
			77.00		1.4983E+00
			77.50		1.4973E+00
			78.00		1.4964E+00
			78.50		1.4954E+00
			79.00		1.4943E+00
			79.50		1.4930E+00
			80.00		1.4918E+00
			80.50		1.4902E+00
			81.00		1.4887E+00
			81.50		1.4866E+00
			82.00		1.4844E+00
			82.50		1.4815E+00
			83.00		1.4786E+00
			83.50		1.4744E+00
			84.00		1.4702E+00
			84.50		1.4654E+00
			85.00		1.4606E+00
			85.50		1.4527E+00
			86.00		1.4447E+00
			86.50		1.4304E+00
			87.00		1.4160E+00
			87.50		1.3934E+00
			88.00		1.3708E+00
			88.50		1.3257E+00
			89.00		1.2806E+00
			89.50		1.2077E+00
			90.00		1.1349E+00
			90.50		1.0396E+00
			91.00		944.30E-03
			91.50		838.80E-03
			92.00		733.31E-03
			92.50		635.28E-03
			93.00		537.24E-03
			93.50		455.04E-03
			94.00		372.83E-03
			94.50		315.80E-03
			95.00		258.77E-03
			95.50		227.41E-03
			96.00		196.06E-03
			96.50		179.19E-03
			97.00		162.31E-03
			97.50		152.84E-03
			98.00		143.38E-03
			98.50		137.19E-03
			99.00		131.00E-03
			99.50		126.15E-03
			100.00		121.30E-03
			100.50		117.53E-03
			101.00		113.77E-03
			101.50		110.91E-03
			102.00		108.05E-03
			102.50		105.70E-03
			103.00		103.34E-03
			103.50		101.15E-03
			104.00		98.959E-03
			104.50		97.266E-03
			105.00		95.573E-03
			105.50		94.007E-03
			106.00		92.441E-03
			106.50		90.841E-03
			107.00		89.241E-03
			107.50		87.843E-03
			108.00		86.445E-03
			108.50		85.017E-03
			109.00		83.589E-03
			109.50		82.267E-03
			110.00		80.945E-03
			110.50		79.647E-03
			111.00		78.350E-03
			111.50		77.093E-03
			112.00		75.837E-03
			112.50		74.738E-03
			113.00		73.639E-03
			113.50		72.457E-03
			114.00		71.276E-03
			114.50		70.354E-03
			115.00		69.432E-03
			115.50		68.359E-03
			116.00		67.287E-03
			116.50		66.098E-03
			117.00		64.909E-03
			117.50		64.011E-03
			118.00		63.112E-03
			118.50		62.552E-03
			119.00		61.992E-03
			119.50		60.879E-03
			120.00		59.767E-03
			120.50		59.054E-03
			121.00		58.340E-03
			121.50		57.503E-03
			122.00		56.667E-03
			122.50		55.818E-03
			123.00		54.969E-03
			123.50		54.121E-03
			124.00		53.273E-03
		END_DATA
	END_SCAN  1
	BEGIN_SCAN  2
		TASK_NAME=tba PDD Profiles
		PROGRAM=WaterTankScans
		COMMENT=PDD + 5x X
		MEAS_DATE=08-Feb-2021 10:11:20
		LINAC=TRUEBEAMSN4791
		MODALITY=X
		ISOCENTER=1000.00
		INPLANE_AXIS=Y
		CROSSPLANE_AXIS=X
		DEPTH_AXIS=Depth
		INPLANE_AXIS_DIR=TARGET_GUN
		CROSSPLANE_AXIS_DIR=LEFT_RIGHT
		DEPTH_AXIS_DIR=UP_DOWN
		ENERGY=6.00
		NOMINAL_DMAX=15.00
		SSD=900.00
		SCD=450.00
		WEDGE_ANGLE=0.00
		FIELD_INPLANE=200.00
		FIELD_CROSSPLANE=200.00
		FIELD_TYPE=RECTANGULAR
		GANTRY=0.00
		GANTRY_UPRIGHT_POSITION=0
		GANTRY_ROTATION=CW
		COLL_ANGLE=0.00
		COLL_OFFSET_INPLANE=0.00
		COLL_OFFSET_CROSSPLANE=0.00
		SCAN_DEVICE=BeamScan
		SCAN_DEVICE_SETUP=BARA_LEFT_RIGHT
		ELECTROMETER=BeamScan
		RANGE_FIELD=LOW
		RANGE_REFERENCE=MEDIUM
		DETECTOR=THIMBLE_CHAMBER
		DETECTOR_SUBCODE=SEMIFLEX
		DETECTOR_RADIUS=2.40
		DETECTOR_NAME=PTW 31021 Semiflex 3D (1)
		DETECTOR_SN=142316
		DETECTOR_CALIBRATION=588000000.00
		DETECTOR_IS_CALIBRATED=1
		DETECTOR_REFERENCE=THIMBLE_CHAMBER
		DETECTOR_REFERENCE_SUBCODE=SEMIFLEX
		DETECTOR_REFERENCE_RADIUS=2.75
		DETECTOR_REFERENCE_NAME=PTW 31010 Semiflex (1)
		DETECTOR_REFERENCE_SN=—
		DETECTOR_REFERENCE_IS_CALIBRATED=0
		DETECTOR_REFERENCE_CALIBRATION=303000000.00
		DETECTOR_HV=400.0
		DETECTOR_REFERENCE_HV=400.0
		DETECTOR_ORIENTATION=HORIZONTAL
		FILTER=FF
		SCAN_SPEED_PROFILE=12.50
		SCAN_PROF_SPEED_DEP=DEPTH
		SCAN_SPEED_PDD=12.50
		SCAN_PDD_SPEED_DEP=ENERGY
		DETECTOR_TYPE=T31021
		REF_FIELD_DEPTH=100.00
		REF_FIELD_DEFINED=ISOCENTER
		REF_FIELD_INPLANE=100.00
		REF_FIELD_CROSSPLANE=100.00
		REF_SCAN_POSITIONS=-85.00;-84.00;-83.00;-82.00;-81.00;-80.00;-79.00;-78.00;-77.00;-76.00;-75.00;-74.00;-73.00;-72.00;-71.00;-70.00;-69.00;-68.00;-67.00;-66.00;-65.00;-64.00;-63.00;-62.00;-61.00;-60.00;-59.00;-58.00;-57.00;-56.00;-55.00;-54.00;-53.00;-52.00;-51.00;-50.00;-49.00;-48.00;-47.00;-46.00;-45.00;-44.00;-43.00;-42.00;-41.00;-40.00;-39.00;-38.00;-37.00;-36.00;-35.00;-34.00;-33.00;-32.00;-31.00;-30.00;-29.00;-28.00;-27.00;-26.00;-25.00;-24.00;-23.00;-22.00;-21.00;-20.00;-19.00;-18.00;-17.00;-16.00;-15.00;-14.00;-13.00;-12.00;-11.00;-10.00;-9.00;-8.00;-7.00;-6.00;-5.00;-4.00;-3.00;-2.00;-1.00;0.00;1.00;2.00;3.00;4.00;5.00;6.00;7.00;8.00;9.00;10.00;11.00;12.00;13.00;14.00;15.00;16.00;17.00;18.00;19.00;20.00;21.00;22.00;23.00;24.00;25.00;26.00;27.00;28.00;29.00;30.00;31.00;32.00;33.00;34.00;35.00;36.00;37.00;38.00;39.00;40.00;41.00;42.00;43.00;44.00;45.00;46.00;47.00;48.00;49.00;50.00;51.00;52.00;53.00;54.00;55.00;56.00;57.00;58.00;59.00;60.00;61.00;62.00;63.00;64.00;65.00;66.00;67.00;68.00;69.00;70.00;71.00;72.00;73.00;74.00;75.00;76.00;77.00;78.00;79.00;80.00;81.00;82.00;83.00;84.00;85.00;
		REF_OVERSCAN_FACTOR=1.00
		SCAN_CURVETYPE=CROSSPLANE_PROFILE
		SCAN_DEPTH=50.00
		SCAN_OFFAXIS_INPLANE=0.00
		SCAN_OFFAXIS_CROSSPLANE=0.00
		SCAN_ANGLE=0.00
		SCAN_DIAGONAL=NOT_DIAGONAL
		SCAN_DIRECTION=NEGATIVE
		MEAS_MEDIUM=WATER
		MEAS_PRESET=MEAS_CONTINUOUS_REFERENCE_SCAN
		MEAS_TIME=0.080
		MEAS_UNIT=A.U.
		INCLINATION_ANGLE=0.00
		PRESSURE=1013.25
		TEMPERATURE=20.00
		NORM_TEMPERATURE=20.00
		CORRECTION_FACTOR=1.0000
		EXPECTED_MAX_DOSE_RATE=3.00
		EPOM_DEPTH_SHIFT=0.2
		EPOM_MODE=SHIFT_PROTOCOL
		CORRECTIONS=SMOOTHED_CORR;CAX_CORR;SYMMETRY_CORR;INTERPOLATED_CORR;
		BEGIN_DATA
			-129.00		59.434E-03
			-128.50		60.778E-03
			-128.00		62.123E-03
			-127.50		63.075E-03
			-127.00		64.028E-03
			-126.50		64.810E-03
			-126.00		65.592E-03
			-125.50		66.572E-03
			-125.00		67.552E-03
			-124.50		68.281E-03
			-124.00		69.009E-03
			-123.50		70.091E-03
			-123.00		71.172E-03
			-122.50		72.230E-03
			-122.00		73.288E-03
			-121.50		74.347E-03
			-121.00		75.407E-03
			-120.50		76.549E-03
			-120.00		77.690E-03
			-119.50		78.662E-03
			-119.00		79.635E-03
			-118.50		80.864E-03
			-118.00		82.093E-03
			-117.50		83.291E-03
			-117.00		84.488E-03
			-116.50		85.872E-03
			-116.00		87.255E-03
			-115.50		88.741E-03
			-115.00		90.227E-03
			-114.50		91.577E-03
			-114.00		92.927E-03
			-113.50		94.704E-03
			-113.00		96.481E-03
			-112.50		98.081E-03
			-112.00		99.682E-03
			-111.50		101.22E-03
			-111.00		102.75E-03
			-110.50		104.41E-03
			-110.00		106.06E-03
			-109.50		108.05E-03
			-109.00		110.05E-03
			-108.50		112.20E-03
			-108.00		114.35E-03
			-107.50		116.72E-03
			-107.00		119.09E-03
			-106.50		121.55E-03
			-106.00		124.00E-03
			-105.50		126.85E-03
			-105.00		129.69E-03
			-104.50		133.27E-03
			-104.00		136.84E-03
			-103.50		141.14E-03
			-103.00		145.44E-03
			-102.50		151.12E-03
			-102.00		156.81E-03
			-101.50		164.27E-03
			-101.00		171.73E-03
			-100.50		183.03E-03
			-100.00		194.33E-03
			-99.50		213.68E-03
			-99.00		233.03E-03
			-98.50		268.07E-03
			-98.00		303.10E-03
			-97.50		358.22E-03
			-97.00		413.35E-03
			-96.50		484.45E-03
			-96.00		555.56E-03
			-95.50		637.34E-03
			-95.00		719.13E-03
			-94.50		798.52E-03
			-94.00		877.92E-03
			-93.50		943.96E-03
			-93.00		1.0100E+00
			-92.50		1.0575E+00
			-92.00		1.1051E+00
			-91.50		1.1323E+00
			-91.00		1.1595E+00
			-90.50		1.1760E+00
			-90.00		1.1924E+00
			-89.50		1.2018E+00
			-89.00		1.2112E+00
			-88.50		1.2179E+00
			-88.00		1.2246E+00
			-87.50		1.2292E+00
			-87.00		1.2339E+00
			-86.50		1.2378E+00
			-86.00		1.2418E+00
			-85.50		1.2450E+00
			-85.00		1.2483E+00
			-84.50		1.2508E+00
			-84.00		1.2532E+00
			-83.50		1.2551E+00
			-83.00		1.2570E+00
			-82.50		1.2587E+00
			-82.00		1.2605E+00
			-81.50		1.2622E+00
			-81.00		1.2638E+00
			-80.50		1.2652E+00
			-80.00		1.2666E+00
			-79.50		1.2678E+00
			-79.00		1.2691E+00
			-78.50		1.2704E+00
			-78.00		1.2717E+00
			-77.50		1.2731E+00
			-77.00		1.2745E+00
			-76.50		1.2757E+00
			-76.00		1.2768E+00
			-75.50		1.2778E+00
			-75.00		1.2788E+00
			-74.50		1.2798E+00
			-74.00		1.2808E+00
			-73.50		1.2816E+00
			-73.00		1.2824E+00
			-72.50		1.2829E+00
			-72.00		1.2835E+00
			-71.50		1.2843E+00
			-71.00		1.2852E+00
			-70.50		1.2861E+00
			-70.00		1.2871E+00
			-69.50		1.2876E+00
			-69.00		1.2882E+00
			-68.50		1.2885E+00
			-68.00		1.2887E+00
			-67.50		1.2889E+00
			-67.00		1.2890E+00
			-66.50		1.2892E+00
			-66.00		1.2894E+00
			-65.50		1.2895E+00
			-65.00		1.2896E+00
			-64.50		1.2898E+00
			-64.00		1.2900E+00
			-63.50		1.2905E+00
			-63.00		1.2911E+00
			-62.50		1.2920E+00
			-62.00		1.2929E+00
			-61.50		1.2938E+00
			-61.00		1.2947E+00
			-60.50		1.2951E+00
			-60.00		1.2954E+00
			-59.50		1.2952E+00
			-59.00		1.2951E+00
			-58.50		1.2952E+00
			-58.00		1.2954E+00
			-57.50		1.2959E+00
			-57.00		1.2963E+00
			-56.50		1.2965E+00
			-56.00		1.2967E+00
			-55.50		1.2966E+00
			-55.00		1.2966E+00
			-54.50		1.2968E+00
			-54.00		1.2971E+00
			-53.50		1.2974E+00
			-53.00		1.2977E+00
			-52.50		1.2977E+00
			-52.00		1.2978E+00
			-51.50		1.2978E+00
			-51.00		1.2978E+00
			-50.50		1.2980E+00
			-50.00		1.2982E+00
			-49.50		1.2984E+00
			-49.00		1.2986E+00
			-48.50		1.2985E+00
			-48.00		1.2985E+00
			-47.50		1.2982E+00
			-47.00		1.2980E+00
			-46.50		1.2977E+00
			-46.00		1.2974E+00
			-45.50		1.2972E+00
			-45.00		1.2970E+00
			-44.50		1.2967E+00
			-44.00		1.2963E+00
			-43.50		1.2958E+00
			-43.00		1.2952E+00
			-42.50		1.2950E+00
			-42.00		1.2947E+00
			-41.50		1.2946E+00
			-41.00		1.2945E+00
			-40.50		1.2944E+00
			-40.00		1.2943E+00
			-39.50		1.2940E+00
			-39.00		1.2938E+00
			-38.50		1.2935E+00
			-38.00		1.2932E+00
			-37.50		1.2930E+00
			-37.00		1.2927E+00
			-36.50		1.2924E+00
			-36.00		1.2921E+00
			-35.50		1.2920E+00
			-35.00		1.2919E+00
			-34.50		1.2919E+00
			-34.00		1.2918E+00
			-33.50		1.2917E+00
			-33.00		1.2915E+00
			-32.50		1.2914E+00
			-32.00		1.2913E+00
			-31.50		1.2912E+00
			-31.00		1.2912E+00
			-30.50		1.2912E+00
			-30.00		1.2912E+00
			-29.50		1.2909E+00
			-29.00		1.2906E+00
			-28.50		1.2903E+00
			-28.00		1.2901E+00
			-27.50		1.2902E+00
			-27.00		1.2903E+00
			-26.50		1.2906E+00
			-26.00		1.2909E+00
			-25.50		1.2911E+00
			-25.00		1.2914E+00
			-24.50		1.2915E+00
			-24.00		1.2915E+00
			-23.50		1.2914E+00
			-23.00		1.2913E+00
			-22.50		1.2909E+00
			-22.00		1.2905E+00
			-21.50		1.2902E+00
			-21.00		1.2898E+00
			-20.50		1.2896E+00
			-20.00		1.2894E+00
			-19.50		1.2893E+00
			-19.00		1.2891E+00
			-18.50		1.2889E+00
			-18.00		1.2886E+00
			-17.50		1.2883E+00
			-17.00		1.2881E+00
			-16.50		1.2880E+00
			-16.00		1.2880E+00
			-15.50		1.2881E+00
			-15.00		1.2882E+00
			-14.50		1.2882E+00
			-14.00		1.2882E+00
			-13.50		1.2880E+00
			-13.00		1.2878E+00
			-12.50		1.2873E+00
			-12.00		1.2867E+00
			-11.50		1.2861E+00
			-11.00		1.2856E+00
			-10.50		1.2852E+00
			-10.00		1.2848E+00
			-9.50		1.2845E+00
			-9.00		1.2843E+00
			-8.50		1.2840E+00
			-8.00		1.2838E+00
			-7.50		1.2834E+00
			-7.00		1.2830E+00
			-6.50		1.2826E+00
			-6.00		1.2823E+00
			-5.50		1.2820E+00
			-5.00		1.2817E+00
			-4.50		1.2815E+00
			-4.00		1.2814E+00
			-3.50		1.2813E+00
			-3.00		1.2813E+00
			-2.50		1.2812E+00
			-2.00		1.2811E+00
			-1.50		1.2810E+00
			-1.00		1.2810E+00
			-0.50		1.2810E+00
			0.00		1.2810E+00
			0.50		1.2810E+00
			1.00		1.2810E+00
			1.50		1.2810E+00
			2.00		1.2811E+00
			2.50		1.2812E+00
			3.00		1.2813E+00
			3.50		1.2813E+00
			4.00		1.2814E+00
			4.50		1.2815E+00
			5.00		1.2817E+00
			5.50		1.2820E+00
			6.00		1.2823E+00
			6.50		1.2826E+00
			7.00		1.2830E+00
			7.50		1.2834E+00
			8.00		1.2838E+00
			8.50		1.2840E+00
			9.00		1.2843E+00
			9.50		1.2845E+00
			10.00		1.2848E+00
			10.50		1.2852E+00
			11.00		1.2856E+00
			11.50		1.2861E+00
			12.00		1.2867E+00
			12.50		1.2873E+00
			13.00		1.2878E+00
			13.50		1.2880E+00
			14.00		1.2882E+00
			14.50		1.2882E+00
			15.00		1.2882E+00
			15.50		1.2881E+00
			16.00		1.2880E+00
			16.50		1.2880E+00
			17.00		1.2881E+00
			17.50		1.2883E+00
			18.00		1.2886E+00
			18.50		1.2889E+00
			19.00		1.2891E+00
			19.50		1.2893E+00
			20.00		1.2894E+00
			20.50		1.2896E+00
			21.00		1.2898E+00
			21.50		1.2902E+00
			22.00		1.2905E+00
			22.50		1.2909E+00
			23.00		1.2913E+00
			23.50		1.2914E+00
			24.00		1.2915E+00
			24.50		1.2915E+00
			25.00		1.2914E+00
			25.50		1.2911E+00
			26.00		1.2909E+00
			26.50		1.2906E+00
			27.00		1.2903E+00
			27.50		1.2902E+00
			28.00		1.2901E+00
			28.50		1.2903E+00
			29.00		1.2906E+00
			29.50		1.2909E+00
			30.00		1.2912E+00
			30.50		1.2912E+00
			31.00		1.2912E+00
			31.50		1.2912E+00
			32.00		1.2913E+00
			32.50		1.2914E+00
			33.00		1.2915E+00
			33.50		1.2917E+00
			34.00		1.2918E+00
			34.50		1.2919E+00
			35.00		1.2919E+00
			35.50		1.2920E+00
			36.00		1.2921E+00
			36.50		1.2924E+00
			37.00		1.2927E+00
			37.50		1.2930E+00
			38.00		1.2932E+00
			38.50		1.2935E+00
			39.00		1.2938E+00
			39.50		1.2940E+00
			40.00		1.2943E+00
			40.50		1.2944E+00
			41.00		1.2945E+00
			41.50		1.2946E+00
			42.00		1.2947E+00
			42.50		1.2950E+00
			43.00		1.2952E+00
			43.50		1.2958E+00
			44.00		1.2963E+00
			44.50		1.2967E+00
			45.00		1.2970E+00
			45.50		1.2972E+00
			46.00		1.2974E+00
			46.50		1.2977E+00
			47.00		1.2980E+00
			47.50		1.2982E+00
			48.00		1.2985E+00
			48.50		1.2985E+00
			49.00		1.2986E+00
			49.50		1.2984E+00
			50.00		1.2982E+00
			50.50		1.2980E+00
			51.00		1.2978E+00
			51.50		1.2978E+00
			52.00		1.2978E+00
			52.50		1.2977E+00
			53.00		1.2977E+00
			53.50		1.2974E+00
			54.00		1.2971E+00
			54.50		1.2968E+00
			55.00		1.2966E+00
			55.50		1.2966E+00
			56.00		1.2967E+00
			56.50		1.2965E+00
			57.00		1.2963E+00
			57.50		1.2959E+00
			58.00		1.2954E+00
			58.50		1.2952E+00
			59.00		1.2951E+00
			59.50		1.2952E+00
			60.00		1.2954E+00
			60.50		1.2951E+00
			61.00		1.2947E+00
			61.50		1.2938E+00
			62.00		1.2929E+00
			62.50		1.2920E+00
			63.00		1.2911E+00
			63.50		1.2905E+00
			64.00		1.2900E+00
			64.50		1.2898E+00
			65.00		1.2896E+00
			65.50		1.2895E+00
			66.00		1.2894E+00
			66.50		1.2892E+00
			67.00		1.2890E+00
			67.50		1.2889E+00
			68.00		1.2887E+00
			68.50		1.2885E+00
			69.00		1.2882E+00
			69.50		1.2876E+00
			70.00		1.2871E+00
			70.50		1.2861E+00
			71.00		1.2852E+00
			71.50		1.2843E+00
			72.00		1.2835E+00
			72.50		1.2829E+00
			73.00		1.2824E+00
			73.50		1.2816E+00
			74.00		1.2808E+00
			74.50		1.2798E+00
			75.00		1.2788E+00
			75.50		1.2778E+00
			76.00		1.2768E+00
			76.50		1.2757E+00
			77.00		1.2745E+00
			77.50		1.2731E+00
			78.00		1.2717E+00
			78.50		1.2704E+00
			79.00		1.2691E+00
			79.50		1.2678E+00
			80.00		1.2666E+00
			80.50		1.2652E+00
			81.00		1.2638E+00
			81.50		1.2622E+00
			82.00		1.2605E+00
			82.50		1.2587E+00
			83.00		1.2570E+00
			83.50		1.2551E+00
			84.00		1.2532E+00
			84.50		1.2508E+00
			85.00		1.2483E+00
			85.50		1.2450E+00
			86.00		1.2418E+00
			86.50		1.2378E+00
			87.00		1.2339E+00
			87.50		1.2292E+00
			88.00		1.2246E+00
			88.50		1.2179E+00
			89.00		1.2112E+00
			89.50		1.2018E+00
			90.00		1.1924E+00
			90.50		1.1760E+00
			91.00		1.1595E+00
			91.50		1.1323E+00
			92.00		1.1051E+00
			92.50		1.0575E+00
			93.00		1.0100E+00
			93.50		943.96E-03
			94.00		877.92E-03
			94.50		798.52E-03
			95.00		719.13E-03
			95.50		637.34E-03
			96.00		555.56E-03
			96.50		484.45E-03
			97.00		413.35E-03
			97.50		358.22E-03
			98.00		303.10E-03
			98.50		268.07E-03
			99.00		233.03E-03
			99.50		213.68E-03
			100.00		194.33E-03
			100.50		183.03E-03
			101.00		171.73E-03
			101.50		164.27E-03
			102.00		156.81E-03
			102.50		151.12E-03
			103.00		145.44E-03
			103.50		141.14E-03
			104.00		136.84E-03
			104.50		133.27E-03
			105.00		129.69E-03
			105.50		126.85E-03
			106.00		124.00E-03
			106.50		121.55E-03
			107.00		119.09E-03
			107.50		116.72E-03
			108.00		114.35E-03
			108.50		112.20E-03
			109.00		110.05E-03
			109.50		108.05E-03
			110.00		106.06E-03
			110.50		104.41E-03
			111.00		102.75E-03
			111.50		101.22E-03
			112.00		99.682E-03
			112.50		98.081E-03
			113.00		96.481E-03
			113.50		94.704E-03
			114.00		92.927E-03
			114.50		91.577E-03
			115.00		90.227E-03
			115.50		88.741E-03
			116.00		87.255E-03
			116.50		85.872E-03
			117.00		84.488E-03
			117.50		83.291E-03
			118.00		82.093E-03
			118.50		80.864E-03
			119.00		79.635E-03
			119.50		78.662E-03
			120.00		77.690E-03
			120.50		76.549E-03
			121.00		75.407E-03
			121.50		74.347E-03
			122.00		73.288E-03
			122.50		72.230E-03
			123.00		71.172E-03
			123.50		70.091E-03
			124.00		69.009E-03
			124.50		68.281E-03
			125.00		67.552E-03
			125.50		66.572E-03
			126.00		65.592E-03
			126.50		64.810E-03
			127.00		64.028E-03
			127.50		63.075E-03
			128.00		62.123E-03
			128.50		60.778E-03
			129.00		59.434E-03
		END_DATA
	END_SCAN  2
	BEGIN_SCAN  3
		TASK_NAME=tba PDD Profiles
		PROGRAM=WaterTankScans
		COMMENT=PDD + 5x X
		MEAS_DATE=08-Feb-2021 10:11:44
		LINAC=TRUEBEAMSN4791
		MODALITY=X
