BEGIN_SCAN_DATA
	FORMAT=CC-Export V1.9                  
	FILE_CREATION_DATE=26-Jul-2022 10:32:16
	LAST_MODIFIED=26-Jul-2022 10:32:16
	BEGIN_SCAN  1
		TASK_NAME=tba PDD Profiles
		PROGRAM=WaterTankScans
		COMMENT=PDD + 5x X
		MEAS_DATE=08-Feb-2021 10:06:04
		LINAC=TRUEBEAMSN4791
		MODALITY=X
		ISOCENTER=1000.00
		INPLANE_AXIS=Y
		CROSSPLANE_AXIS=X
		DEPTH_AXIS=Depth
		INPLANE_AXIS_DIR=TARGET_GUN
		CROSSPLANE_AXIS_DIR=LEFT_RIGHT
		DEPTH_AXIS_DIR=UP_DOWN
		ENERGY=6.00
		NOMINAL_DMAX=15.00
		SSD=900.00
		SCD=450.00
		WEDGE_ANGLE=0.00
		FIELD_INPLANE=150.00
		FIELD_CROSSPLANE=150.00
		FIELD_TYPE=RECTANGULAR
		GANTRY=0.00
		GANTRY_UPRIGHT_POSITION=0
		GANTRY_ROTATION=CW
		COLL_ANGLE=0.00
		COLL_OFFSET_INPLANE=0.00
		COLL_OFFSET_CROSSPLANE=0.00
		SCAN_DEVICE=BeamScan
		SCAN_DEVICE_SETUP=BARA_LEFT_RIGHT
		ELECTROMETER=BeamScan
		RANGE_FIELD=LOW
		RANGE_REFERENCE=MEDIUM
		DETECTOR=THIMBLE_CHAMBER
		DETECTOR_SUBCODE=SEMIFLEX
		DETECTOR_RADIUS=2.40
		DETECTOR_NAME=PTW 31021 Semiflex 3D (1)
		DETECTOR_SN=142316
		DETECTOR_CALIBRATION=588000000.00
		DETECTOR_IS_CALIBRATED=1
		DETECTOR_REFERENCE=THIMBLE_CHAMBER
		DETECTOR_REFERENCE_SUBCODE=SEMIFLEX
		DETECTOR_REFERENCE_RADIUS=2.75
		DETECTOR_REFERENCE_NAME=PTW 31010 Semiflex (1)
		DETECTOR_REFERENCE_SN=—
		DETECTOR_REFERENCE_IS_CALIBRATED=0
		DETECTOR_REFERENCE_CALIBRATION=303000000.00
		DETECTOR_HV=400.0
		DETECTOR_REFERENCE_HV=400.0
		DETECTOR_ORIENTATION=HORIZONTAL
		FILTER=FF
		SCAN_SPEED_PROFILE=12.50
		SCAN_PROF_SPEED_DEP=DEPTH
		SCAN_SPEED_PDD=12.50
		SCAN_PDD_SPEED_DEP=ENERGY
		DETECTOR_TYPE=T31021
		REF_FIELD_DEPTH=100.00
		REF_FIELD_DEFINED=ISOCENTER
		REF_FIELD_INPLANE=100.00
		REF_FIELD_CROSSPLANE=100.00
		REF_SCAN_POSITIONS=-85.00;-84.00;-83.00;-82.00;-81.00;-80.00;-79.00;-78.00;-77.00;-76.00;-75.00;-74.00;-73.00;-72.00;-71.00;-70.00;-69.00;-68.00;-67.00;-66.00;-65.00;-64.00;-63.00;-62.00;-61.00;-60.00;-59.00;-58.00;-57.00;-56.00;-55.00;-54.00;-53.00;-52.00;-51.00;-50.00;-49.00;-48.00;-47.00;-46.00;-45.00;-44.00;-43.00;-42.00;-41.00;-40.00;-39.00;-38.00;-37.00;-36.00;-35.00;-34.00;-33.00;-32.00;-31.00;-30.00;-29.00;-28.00;-27.00;-26.00;-25.00;-24.00;-23.00;-22.00;-21.00;-20.00;-19.00;-18.00;-17.00;-16.00;-15.00;-14.00;-13.00;-12.00;-11.00;-10.00;-9.00;-8.00;-7.00;-6.00;-5.00;-4.00;-3.00;-2.00;-1.00;0.00;1.00;2.00;3.00;4.00;5.00;6.00;7.00;8.00;9.00;10.00;11.00;12.00;13.00;14.00;15.00;16.00;17.00;18.00;19.00;20.00;21.00;22.00;23.00;24.00;25.00;26.00;27.00;28.00;29.00;30.00;31.00;32.00;33.00;34.00;35.00;36.00;37.00;38.00;39.00;40.00;41.00;42.00;43.00;44.00;45.00;46.00;47.00;48.00;49.00;50.00;51.00;52.00;53.00;54.00;55.00;56.00;57.00;58.00;59.00;60.00;61.00;62.00;63.00;64.00;65.00;66.00;67.00;68.00;69.00;70.00;71.00;72.00;73.00;74.00;75.00;76.00;77.00;78.00;79.00;80.00;81.00;82.00;83.00;84.00;85.00;
		REF_OVERSCAN_FACTOR=1.00
		SCAN_CURVETYPE=CROSSPLANE_PROFILE
		SCAN_DEPTH=15.00
		SCAN_OFFAXIS_INPLANE=0.00
		SCAN_OFFAXIS_CROSSPLANE=0.00
		SCAN_ANGLE=0.00
		SCAN_DIAGONAL=NOT_DIAGONAL
		SCAN_DIRECTION=POSITIVE
		MEAS_MEDIUM=WATER
		MEAS_PRESET=MEAS_CONTINUOUS_REFERENCE_SCAN
		MEAS_TIME=0.080
		MEAS_UNIT=A.U.
		INCLINATION_ANGLE=0.00
		PRESSURE=1013.25
		TEMPERATURE=20.00
		NORM_TEMPERATURE=20.00
		CORRECTION_FACTOR=1.0000
		EXPECTED_MAX_DOSE_RATE=3.00
		EPOM_DEPTH_SHIFT=0.2
		EPOM_MODE=SHIFT_PROTOCOL
		CORRECTIONS=SMOOTHED_CORR;CAX_CORR;SYMMETRY_CORR;INTERPOLATED_CORR;
		BEGIN_DATA
			-101.00		48.905E-03
			-100.50		50.053E-03
			-100.00		51.201E-03
			-99.50		51.859E-03
			-99.00		52.518E-03
			-98.50		53.329E-03
			-98.00		54.141E-03
			-97.50		54.961E-03
			-97.00		55.780E-03
			-96.50		56.488E-03
			-96.00		57.195E-03
			-95.50		58.171E-03
			-95.00		59.147E-03
			-94.50		60.268E-03
			-94.00		61.388E-03
			-93.50		62.410E-03
			-93.00		63.432E-03
			-92.50		64.335E-03
			-92.00		65.238E-03
			-91.50		66.250E-03
			-91.00		67.262E-03
			-90.50		68.480E-03
			-90.00		69.697E-03
			-89.50		70.850E-03
			-89.00		72.003E-03
			-88.50		73.144E-03
			-88.00		74.285E-03
			-87.50		75.937E-03
			-87.00		77.589E-03
			-86.50		78.649E-03
			-86.00		79.708E-03
			-85.50		81.073E-03
			-85.00		82.438E-03
			-84.50		84.189E-03
			-84.00		85.940E-03
			-83.50		87.576E-03
			-83.00		89.212E-03
			-82.50		90.808E-03
			-82.00		92.405E-03
			-81.50		94.528E-03
			-81.00		96.652E-03
			-80.50		98.911E-03
			-80.00		101.17E-03
			-79.50		103.96E-03
			-79.00		106.74E-03
			-78.50		109.98E-03
			-78.00		113.23E-03
			-77.50		117.29E-03
			-77.00		121.36E-03
			-76.50		126.88E-03
			-76.00		132.40E-03
			-75.50		139.99E-03
			-75.00		147.58E-03
			-74.50		159.57E-03
			-74.00		171.55E-03
			-73.50		191.68E-03
			-73.00		211.80E-03
			-72.50		249.15E-03
			-72.00		286.50E-03
			-71.50		353.66E-03
			-71.00		420.83E-03
			-70.50		515.66E-03
			-70.00		610.50E-03
			-69.50		724.94E-03
			-69.00		839.38E-03
			-68.50		960.54E-03
			-68.00		1.0817E+00
			-67.50		1.1876E+00
			-67.00		1.2936E+00
			-66.50		1.3765E+00
			-66.00		1.4593E+00
			-65.50		1.5098E+00
			-65.00		1.5603E+00
			-64.50		1.5871E+00
			-64.00		1.6139E+00
			-63.50		1.6293E+00
			-63.00		1.6446E+00
			-62.50		1.6536E+00
			-62.00		1.6625E+00
			-61.50		1.6681E+00
			-61.00		1.6738E+00
			-60.50		1.6784E+00
			-60.00		1.6830E+00
			-59.50		1.6864E+00
			-59.00		1.6898E+00
			-58.50		1.6922E+00
			-58.00		1.6946E+00
			-57.50		1.6966E+00
			-57.00		1.6985E+00
			-56.50		1.7003E+00
			-56.00		1.7020E+00
			-55.50		1.7033E+00
			-55.00		1.7046E+00
			-54.50		1.7056E+00
			-54.00		1.7066E+00
			-53.50		1.7076E+00
			-53.00		1.7085E+00
			-52.50		1.7095E+00
			-52.00		1.7104E+00
			-51.50		1.7110E+00
			-51.00		1.7116E+00
			-50.50		1.7115E+00
			-50.00		1.7115E+00
			-49.50		1.7115E+00
			-49.00		1.7115E+00
			-48.50		1.7122E+00
			-48.00		1.7128E+00
			-47.50		1.7137E+00
			-47.00		1.7146E+00
			-46.50		1.7153E+00
			-46.00		1.7161E+00
			-45.50		1.7167E+00
			-45.00		1.7174E+00
			-44.50		1.7174E+00
			-44.00		1.7173E+00
			-43.50		1.7167E+00
			-43.00		1.7160E+00
			-42.50		1.7153E+00
			-42.00		1.7145E+00
			-41.50		1.7141E+00
			-41.00		1.7138E+00
			-40.50		1.7136E+00
			-40.00		1.7134E+00
			-39.50		1.7129E+00
			-39.00		1.7125E+00
			-38.50		1.7114E+00
			-38.00		1.7104E+00
			-37.50		1.7095E+00
			-37.00		1.7085E+00
			-36.50		1.7083E+00
			-36.00		1.7080E+00
			-35.50		1.7080E+00
			-35.00		1.7080E+00
			-34.50		1.7077E+00
			-34.00		1.7075E+00
			-33.50		1.7073E+00
			-33.00		1.7071E+00
			-32.50		1.7068E+00
			-32.00		1.7065E+00
			-31.50		1.7059E+00
			-31.00		1.7053E+00
			-30.50		1.7046E+00
			-30.00		1.7040E+00
			-29.50		1.7038E+00
			-29.00		1.7036E+00
			-28.50		1.7038E+00
			-28.00		1.7039E+00
			-27.50		1.7041E+00
			-27.00		1.7042E+00
			-26.50		1.7043E+00
			-26.00		1.7045E+00
			-25.50		1.7045E+00
			-25.00		1.7045E+00
			-24.50		1.7041E+00
			-24.00		1.7037E+00
			-23.50		1.7033E+00
			-23.00		1.7029E+00
			-22.50		1.7028E+00
			-22.00		1.7027E+00
			-21.50		1.7029E+00
			-21.00		1.7031E+00
			-20.50		1.7032E+00
			-20.00		1.7033E+00
			-19.50		1.7031E+00
			-19.00		1.7028E+00
			-18.50		1.7023E+00
			-18.00		1.7018E+00
			-17.50		1.7013E+00
			-17.00		1.7007E+00
			-16.50		1.7004E+00
			-16.00		1.7002E+00
			-15.50		1.7002E+00
			-15.00		1.7001E+00
			-14.50		1.6998E+00
			-14.00		1.6996E+00
			-13.50		1.6990E+00
			-13.00		1.6985E+00
			-12.50		1.6981E+00
			-12.00		1.6976E+00
			-11.50		1.6975E+00
			-11.00		1.6974E+00
			-10.50		1.6973E+00
			-10.00		1.6971E+00
			-9.50		1.6967E+00
			-9.00		1.6963E+00
			-8.50		1.6955E+00
			-8.00		1.6948E+00
			-7.50		1.6938E+00
			-7.00		1.6927E+00
			-6.50		1.6918E+00
			-6.00		1.6909E+00
			-5.50		1.6905E+00
			-5.00		1.6902E+00
			-4.50		1.6902E+00
			-4.00		1.6902E+00
			-3.50		1.6899E+00
			-3.00		1.6897E+00
			-2.50		1.6895E+00
			-2.00		1.6892E+00
			-1.50		1.6893E+00
			-1.00		1.6894E+00
			-0.50		1.6895E+00
			0.00		1.6897E+00
			0.50		1.6895E+00
			1.00		1.6894E+00
			1.50		1.6893E+00
			2.00		1.6892E+00
			2.50		1.6895E+00
			3.00		1.6897E+00
			3.50		1.6899E+00
			4.00		1.6902E+00
			4.50		1.6902E+00
			5.00		1.6902E+00
			5.50		1.6905E+00
			6.00		1.6909E+00
			6.50		1.6918E+00
			7.00		1.6927E+00
			7.50		1.6938E+00
			8.00		1.6948E+00
			8.50		1.6955E+00
			9.00		1.6963E+00
			9.50		1.6967E+00
			10.00		1.6971E+00
			10.50		1.6973E+00
			11.00		1.6974E+00
			11.50		1.6975E+00
			12.00		1.6976E+00
			12.50		1.6981E+00
			13.00		1.6985E+00
			13.50		1.6990E+00
			14.00		1.6996E+00
			14.50		1.6998E+00
			15.00		1.7001E+00
			15.50		1.7002E+00
			16.00		1.7002E+00
			16.50		1.7004E+00
			17.00		1.7007E+00
			17.50		1.7013E+00
			18.00		1.7018E+00
			18.50		1.7023E+00
			19.00		1.7028E+00
			19.50		1.7031E+00
			20.00		1.7033E+00
			20.50		1.7032E+00
			21.00		1.7031E+00
			21.50		1.7029E+00
			22.00		1.7027E+00
			22.50		1.7028E+00
			23.00		1.7029E+00
			23.50		1.7033E+00
			24.00		1.7037E+00
			24.50		1.7041E+00
			25.00		1.7045E+00
			25.50		1.7045E+00
			26.00		1.7045E+00
			26.50		1.7043E+00
			27.00		1.7042E+00
			27.50		1.7041E+00
			28.00		1.7039E+00
			28.50		1.7038E+00
			29.00		1.7036E+00
			29.50		1.7038E+00
			30.00		1.7040E+00
			30.50		1.7046E+00
			31.00		1.7053E+00
			31.50		1.7059E+00
			32.00		1.7065E+00
			32.50		1.7068E+00
			33.00		1.7071E+00
			33.50		1.7073E+00
			34.00		1.7075E+00
			34.50		1.7077E+00
			35.00		1.7080E+00
			35.50		1.7080E+00
			36.00		1.7080E+00
			36.50		1.7083E+00
			37.00		1.7085E+00
			37.50		1.7095E+00
			38.00		1.7104E+00
			38.50		1.7114E+00
			39.00		1.7125E+00
			39.50		1.7129E+00
			40.00		1.7134E+00
			40.50		1.7136E+00
			41.00		1.7138E+00
			41.50		1.7141E+00
			42.00		1.7145E+00
			42.50		1.7153E+00
			43.00		1.7160E+00
			43.50		1.7167E+00
			44.00		1.7173E+00
			44.50		1.7174E+00
			45.00		1.7174E+00
			45.50		1.7167E+00
			46.00		1.7161E+00
			46.50		1.7153E+00
			47.00		1.7146E+00
			47.50		1.7137E+00
			48.00		1.7128E+00
			48.50		1.7122E+00
			49.00		1.7115E+00
			49.50		1.7115E+00
			50.00		1.7115E+00
			50.50		1.7115E+00
			51.00		1.7116E+00
			51.50		1.7110E+00
			52.00		1.7104E+00
			52.50		1.7095E+00
			53.00		1.7085E+00
			53.50		1.7076E+00
			54.00		1.7066E+00
			54.50		1.7056E+00
			55.00		1.7046E+00
			55.50		1.7033E+00
			56.00		1.7020E+00
			56.50		1.7003E+00
			57.00		1.6985E+00
			57.50		1.6966E+00
			58.00		1.6946E+00
			58.50		1.6922E+00
			59.00		1.6898E+00
			59.50		1.6864E+00
			60.00		1.6830E+00
			60.50		1.6784E+00
			61.00		1.6738E+00
			61.50		1.6681E+00
			62.00		1.6625E+00
			62.50		1.6536E+00
			63.00		1.6446E+00
			63.50		1.6293E+00
			64.00		1.6139E+00
			64.50		1.5871E+00
			65.00		1.5603E+00
			65.50		1.5098E+00
			66.00		1.4593E+00
			66.50		1.3765E+00
			67.00		1.2936E+00
			67.50		1.1876E+00
			68.00		1.0817E+00
			68.50		960.54E-03
			69.00		839.38E-03
			69.50		724.94E-03
			70.00		610.50E-03
			70.50		515.66E-03
			71.00		420.83E-03
			71.50		353.66E-03
			72.00		286.50E-03
			72.50		249.15E-03
			73.00		211.80E-03
			73.50		191.68E-03
			74.00		171.55E-03
			74.50		159.57E-03
			75.00		147.58E-03
			75.50		139.99E-03
			76.00		132.40E-03
			76.50		126.88E-03
			77.00		121.36E-03
			77.50		117.29E-03
			78.00		113.23E-03
			78.50		109.98E-03
			79.00		106.74E-03
			79.50		103.96E-03
			80.00		101.17E-03
			80.50		98.911E-03
			81.00		96.652E-03
			81.50		94.528E-03
			82.00		92.405E-03
			82.50		90.808E-03
			83.00		89.212E-03
			83.50		87.576E-03
			84.00		85.940E-03
			84.50		84.189E-03
			85.00		82.438E-03
			85.50		81.073E-03
			86.00		79.708E-03
			86.50		78.649E-03
			87.00		77.589E-03
			87.50		75.937E-03
			88.00		74.285E-03
			88.50		73.144E-03
			89.00		72.003E-03
			89.50		70.850E-03
			90.00		69.697E-03
			90.50		68.480E-03
			91.00		67.262E-03
			91.50		66.250E-03
			92.00		65.238E-03
			92.50		64.335E-03
			93.00		63.432E-03
			93.50		62.410E-03
			94.00		61.388E-03
			94.50		60.268E-03
			95.00		59.147E-03
			95.50		58.171E-03
			96.00		57.195E-03
			96.50		56.488E-03
			97.00		55.780E-03
			97.50		54.961E-03
			98.00		54.141E-03
			98.50		53.329E-03
			99.00		52.518E-03
			99.50		51.859E-03
			100.00		51.201E-03
			100.50		50.053E-03
			101.00		48.905E-03
		END_DATA
	END_SCAN  1
	BEGIN_SCAN  2
		TASK_NAME=tba PDD Profiles
		PROGRAM=WaterTankScans
		COMMENT=PDD + 5x X
		MEAS_DATE=08-Feb-2021 10:06:26
		LINAC=TRUEBEAMSN4791
		MODALITY=X
		ISOCENTER=1000.00
		INPLANE_AXIS=Y
		CROSSPLANE_AXIS=X
		DEPTH_AXIS=Depth
		INPLANE_AXIS_DIR=TARGET_GUN
		CROSSPLANE_AXIS_DIR=LEFT_RIGHT
		DEPTH_AXIS_DIR=UP_DOWN
		ENERGY=6.00
		NOMINAL_DMAX=15.00
		SSD=900.00
		SCD=450.00
		WEDGE_ANGLE=0.00
		FIELD_INPLANE=150.00
		FIELD_CROSSPLANE=150.00
		FIELD_TYPE=RECTANGULAR
		GANTRY=0.00
		GANTRY_UPRIGHT_POSITION=0
		GANTRY_ROTATION=CW
		COLL_ANGLE=0.00
		COLL_OFFSET_INPLANE=0.00
		COLL_OFFSET_CROSSPLANE=0.00
		SCAN_DEVICE=BeamScan
		SCAN_DEVICE_SETUP=BARA_LEFT_RIGHT
		ELECTROMETER=BeamScan
		RANGE_FIELD=LOW
		RANGE_REFERENCE=MEDIUM
		DETECTOR=THIMBLE_CHAMBER
		DETECTOR_SUBCODE=SEMIFLEX
		DETECTOR_RADIUS=2.40
		DETECTOR_NAME=PTW 31021 Semiflex 3D (1)
		DETECTOR_SN=142316
		DETECTOR_CALIBRATION=588000000.00
		DETECTOR_IS_CALIBRATED=1
		DETECTOR_REFERENCE=THIMBLE_CHAMBER
		DETECTOR_REFERENCE_SUBCODE=SEMIFLEX
		DETECTOR_REFERENCE_RADIUS=2.75
		DETECTOR_REFERENCE_NAME=PTW 31010 Semiflex (1)
		DETECTOR_REFERENCE_SN=—
		DETECTOR_REFERENCE_IS_CALIBRATED=0
		DETECTOR_REFERENCE_CALIBRATION=303000000.00
		DETECTOR_HV=400.0
		DETECTOR_REFERENCE_HV=400.0
		DETECTOR_ORIENTATION=HORIZONTAL
		FILTER=FF
		SCAN_SPEED_PROFILE=12.50
		SCAN_PROF_SPEED_DEP=DEPTH
		SCAN_SPEED_PDD=12.50
		SCAN_PDD_SPEED_DEP=ENERGY
		DETECTOR_TYPE=T31021
		REF_FIELD_DEPTH=100.00
		REF_FIELD_DEFINED=ISOCENTER
		REF_FIELD_INPLANE=100.00
		REF_FIELD_CROSSPLANE=100.00
		REF_SCAN_POSITIONS=-85.00;-84.00;-83.00;-82.00;-81.00;-80.00;-79.00;-78.00;-77.00;-76.00;-75.00;-74.00;-73.00;-72.00;-71.00;-70.00;-69.00;-68.00;-67.00;-66.00;-65.00;-64.00;-63.00;-62.00;-61.00;-60.00;-59.00;-58.00;-57.00;-56.00;-55.00;-54.00;-53.00;-52.00;-51.00;-50.00;-49.00;-48.00;-47.00;-46.00;-45.00;-44.00;-43.00;-42.00;-41.00;-40.00;-39.00;-38.00;-37.00;-36.00;-35.00;-34.00;-33.00;-32.00;-31.00;-30.00;-29.00;-28.00;-27.00;-26.00;-25.00;-24.00;-23.00;-22.00;-21.00;-20.00;-19.00;-18.00;-17.00;-16.00;-15.00;-14.00;-13.00;-12.00;-11.00;-10.00;-9.00;-8.00;-7.00;-6.00;-5.00;-4.00;-3.00;-2.00;-1.00;0.00;1.00;2.00;3.00;4.00;5.00;6.00;7.00;8.00;9.00;10.00;11.00;12.00;13.00;14.00;15.00;16.00;17.00;18.00;19.00;20.00;21.00;22.00;23.00;24.00;25.00;26.00;27.00;28.00;29.00;30.00;31.00;32.00;33.00;34.00;35.00;36.00;37.00;38.00;39.00;40.00;41.00;42.00;43.00;44.00;45.00;46.00;47.00;48.00;49.00;50.00;51.00;52.00;53.00;54.00;55.00;56.00;57.00;58.00;59.00;60.00;61.00;62.00;63.00;64.00;65.00;66.00;67.00;68.00;69.00;70.00;71.00;72.00;73.00;74.00;75.00;76.00;77.00;78.00;79.00;80.00;81.00;82.00;83.00;84.00;85.00;
		REF_OVERSCAN_FACTOR=1.00
		SCAN_CURVETYPE=CROSSPLANE_PROFILE
		SCAN_DEPTH=50.00
		SCAN_OFFAXIS_INPLANE=0.00
		SCAN_OFFAXIS_CROSSPLANE=0.00
		SCAN_ANGLE=0.00
		SCAN_DIAGONAL=NOT_DIAGONAL
		SCAN_DIRECTION=NEGATIVE
		MEAS_MEDIUM=WATER
		MEAS_PRESET=MEAS_CONTINUOUS_REFERENCE_SCAN
		MEAS_TIME=0.080
		MEAS_UNIT=A.U.
		INCLINATION_ANGLE=0.00
		PRESSURE=1013.25
		TEMPERATURE=20.00
		NORM_TEMPERATURE=20.00
		CORRECTION_FACTOR=1.0000
		EXPECTED_MAX_DOSE_RATE=3.00
		EPOM_DEPTH_SHIFT=0.2
		EPOM_MODE=SHIFT_PROTOCOL
		CORRECTIONS=SMOOTHED_CORR;CAX_CORR;SYMMETRY_CORR;INTERPOLATED_CORR;
		BEGIN_DATA
			-105.00		54.830E-03
			-104.50		56.149E-03
			-104.00		57.468E-03
			-103.50		58.543E-03
			-103.00		59.617E-03
			-102.50		60.373E-03
			-102.00		61.129E-03
			-101.50		62.024E-03
			-101.00		62.919E-03
			-100.50		63.830E-03
			-100.00		64.741E-03
			-99.50		65.866E-03
			-99.00		66.990E-03
			-98.50		68.093E-03
			-98.00		69.196E-03
			-97.50		70.070E-03
			-97.00		70.944E-03
			-96.50		72.146E-03
			-96.00		73.349E-03
			-95.50		74.435E-03
			-95.00		75.520E-03
			-94.50		76.903E-03
			-94.00		78.287E-03
			-93.50		79.719E-03
			-93.00		81.150E-03
			-92.50		82.520E-03
			-92.00		83.889E-03
			-91.50		85.564E-03
			-91.00		87.239E-03
			-90.50		88.869E-03
			-90.00		90.499E-03
			-89.50		92.117E-03
			-89.00		93.735E-03
			-88.50		95.288E-03
			-88.00		96.841E-03
			-87.50		98.660E-03
			-87.00		100.48E-03
			-86.50		102.31E-03
			-86.00		104.14E-03
			-85.50		106.34E-03
			-85.00		108.54E-03
			-84.50		110.71E-03
			-84.00		112.88E-03
			-83.50		115.50E-03
			-83.00		118.12E-03
			-82.50		121.23E-03
			-82.00		124.35E-03
			-81.50		127.70E-03
			-81.00		131.05E-03
			-80.50		135.12E-03
			-80.00		139.19E-03
			-79.50		144.45E-03
			-79.00		149.70E-03
			-78.50		156.53E-03
			-78.00		163.37E-03
			-77.50		172.62E-03
			-77.00		181.87E-03
			-76.50		196.68E-03
			-76.00		211.49E-03
			-75.50		236.25E-03
			-75.00		261.00E-03
			-74.50		305.56E-03
			-74.00		350.13E-03
			-73.50		417.17E-03
			-73.00		484.22E-03
			-72.50		569.17E-03
			-72.00		654.12E-03
			-71.50		748.14E-03
			-71.00		842.16E-03
			-70.50		931.68E-03
			-70.00		1.0212E+00
			-69.50		1.0936E+00
			-69.00		1.1661E+00
			-68.50		1.2169E+00
			-68.00		1.2676E+00
			-67.50		1.2965E+00
			-67.00		1.3254E+00
			-66.50		1.3432E+00
			-66.00		1.3609E+00
			-65.50		1.3719E+00
			-65.00		1.3828E+00
			-64.50		1.3893E+00
			-64.00		1.3957E+00
			-63.50		1.4009E+00
			-63.00		1.4062E+00
			-62.50		1.4102E+00
			-62.00		1.4142E+00
			-61.50		1.4179E+00
			-61.00		1.4216E+00
			-60.50		1.4246E+00
			-60.00		1.4276E+00
			-59.50		1.4298E+00
			-59.00		1.4320E+00
			-58.50		1.4338E+00
			-58.00		1.4356E+00
			-57.50		1.4372E+00
			-57.00		1.4388E+00
			-56.50		1.4404E+00
			-56.00		1.4420E+00
			-55.50		1.4434E+00
			-55.00		1.4448E+00
			-54.50		1.4462E+00
			-54.00		1.4476E+00
			-53.50		1.4488E+00
			-53.00		1.4501E+00
			-52.50		1.4511E+00
			-52.00		1.4522E+00
			-51.50		1.4533E+00
			-51.00		1.4543E+00
			-50.50		1.4554E+00
			-50.00		1.4564E+00
			-49.50		1.4568E+00
			-49.00		1.4572E+00
			-48.50		1.4573E+00
			-48.00		1.4574E+00
			-47.50		1.4578E+00
			-47.00		1.4582E+00
			-46.50		1.4590E+00
			-46.00		1.4597E+00
			-45.50		1.4602E+00
			-45.00		1.4607E+00
			-44.50		1.4611E+00
			-44.00		1.4614E+00
			-43.50		1.4620E+00
			-43.00		1.4625E+00
			-42.50		1.4629E+00
			-42.00		1.4634E+00
			-41.50		1.4636E+00
			-41.00		1.4638E+00
			-40.50		1.4636E+00
			-40.00		1.4635E+00
			-39.50		1.4632E+00
			-39.00		1.4629E+00
			-38.50		1.4627E+00
			-38.00		1.4625E+00
			-37.50		1.4622E+00
			-37.00		1.4619E+00
			-36.50		1.4614E+00
			-36.00		1.4610E+00
			-35.50		1.4605E+00
			-35.00		1.4600E+00
			-34.50		1.4599E+00
			-34.00		1.4599E+00
			-33.50		1.4599E+00
			-33.00		1.4600E+00
			-32.50		1.4601E+00
			-32.00		1.4602E+00
			-31.50		1.4606E+00
			-31.00		1.4611E+00
			-30.50		1.4617E+00
			-30.00		1.4622E+00
			-29.50		1.4624E+00
			-29.00		1.4626E+00
			-28.50		1.4626E+00
			-28.00		1.4626E+00
			-27.50		1.4625E+00
			-27.00		1.4625E+00
			-26.50		1.4625E+00
			-26.00		1.4625E+00
			-25.50		1.4625E+00
			-25.00		1.4625E+00
			-24.50		1.4628E+00
			-24.00		1.4632E+00
			-23.50		1.4638E+00
			-23.00		1.4643E+00
			-22.50		1.4646E+00
			-22.00		1.4649E+00
			-21.50		1.4647E+00
			-21.00		1.4645E+00
			-20.50		1.4641E+00
			-20.00		1.4636E+00
			-19.50		1.4634E+00
			-19.00		1.4632E+00
			-18.50		1.4632E+00
			-18.00		1.4632E+00
			-17.50		1.4631E+00
			-17.00		1.4629E+00
			-16.50		1.4627E+00
			-16.00		1.4625E+00
			-15.50		1.4621E+00
			-15.00		1.4618E+00
			-14.50		1.4614E+00
			-14.00		1.4610E+00
			-13.50		1.4606E+00
			-13.00		1.4602E+00
			-12.50		1.4598E+00
			-12.00		1.4595E+00
			-11.50		1.4592E+00
			-11.00		1.4590E+00
			-10.50		1.4586E+00
			-10.00		1.4583E+00
			-9.50		1.4578E+00
			-9.00		1.4572E+00
			-8.50		1.4567E+00
			-8.00		1.4562E+00
			-7.50		1.4559E+00
			-7.00		1.4555E+00
			-6.50		1.4553E+00
			-6.00		1.4552E+00
			-5.50		1.4551E+00
			-5.00		1.4550E+00
			-4.50		1.4548E+00
			-4.00		1.4546E+00
			-3.50		1.4545E+00
			-3.00		1.4543E+00
			-2.50		1.4543E+00
			-2.00		1.4543E+00
			-1.50		1.4545E+00
			-1.00		1.4546E+00
			-0.50		1.4547E+00
			0.00		1.4548E+00
			0.50		1.4547E+00
			1.00		1.4546E+00
			1.50		1.4545E+00
			2.00		1.4543E+00
			2.50		1.4543E+00
			3.00		1.4543E+00
			3.50		1.4545E+00
			4.00		1.4546E+00
			4.50		1.4548E+00
			5.00		1.4550E+00
			5.50		1.4551E+00
			6.00		1.4552E+00
			6.50		1.4553E+00
			7.00		1.4555E+00
			7.50		1.4559E+00
			8.00		1.4562E+00
			8.50		1.4567E+00
			9.00		1.4572E+00
			9.50		1.4578E+00
			10.00		1.4583E+00
			10.50		1.4586E+00
			11.00		1.4590E+00
			11.50		1.4592E+00
			12.00		1.4595E+00
			12.50		1.4598E+00
			13.00		1.4602E+00
			13.50		1.4606E+00
			14.00		1.4610E+00
			14.50		1.4614E+00
			15.00		1.4618E+00
			15.50		1.4621E+00
			16.00		1.4625E+00
			16.50		1.4627E+00
			17.00		1.4629E+00
			17.50		1.4631E+00
			18.00		1.4632E+00
			18.50		1.4632E+00
			19.00		1.4632E+00
			19.50		1.4634E+00
			20.00		1.4636E+00
			20.50		1.4641E+00
			21.00		1.4645E+00
			21.50		1.4647E+00
			22.00		1.4649E+00
			22.50		1.4646E+00
			23.00		1.4643E+00
			23.50		1.4638E+00
			24.00		1.4632E+00
			24.50		1.4628E+00
			25.00		1.4625E+00
			25.50		1.4625E+00
			26.00		1.4625E+00
			26.50		1.4625E+00
			27.00		1.4625E+00
			27.50		1.4625E+00
			28.00		1.4626E+00
			28.50		1.4626E+00
			29.00		1.4626E+00
			29.50		1.4624E+00
			30.00		1.4622E+00
			30.50		1.4617E+00
			31.00		1.4611E+00
			31.50		1.4606E+00
			32.00		1.4602E+00
			32.50		1.4601E+00
			33.00		1.4600E+00
			33.50		1.4599E+00
			34.00		1.4599E+00
			34.50		1.4599E+00
			35.00		1.4600E+00
			35.50		1.4605E+00
			36.00		1.4610E+00
			36.50		1.4614E+00
			37.00		1.4619E+00
			37.50		1.4622E+00
			38.00		1.4625E+00
			38.50		1.4627E+00
			39.00		1.4629E+00
			39.50		1.4632E+00
			40.00		1.4635E+00
			40.50		1.4636E+00
			41.00		1.4638E+00
			41.50		1.4636E+00
			42.00		1.4634E+00
			42.50		1.4629E+00
			43.00		1.4625E+00
			43.50		1.4620E+00
			44.00		1.4614E+00
			44.50		1.4611E+00
			45.00		1.4607E+00
			45.50		1.4602E+00
			46.00		1.4597E+00
			46.50		1.4590E+00
			47.00		1.4582E+00
			47.50		1.4578E+00
			48.00		1.4574E+00
			48.50		1.4573E+00
			49.00		1.4572E+00
			49.50		1.4568E+00
			50.00		1.4564E+00
			50.50		1.4554E+00
			51.00		1.4543E+00
			51.50		1.4533E+00
			52.00		1.4522E+00
			52.50		1.4511E+00
			53.00		1.4501E+00
			53.50		1.4488E+00
			54.00		1.4476E+00
			54.50		1.4462E+00
			55.00		1.4448E+00
			55.50		1.4434E+00
			56.00		1.4420E+00
			56.50		1.4404E+00
			57.00		1.4388E+00
			57.50		1.4372E+00
			58.00		1.4356E+00
			58.50		1.4338E+00
			59.00		1.4320E+00
			59.50		1.4298E+00
			60.00		1.4276E+00
			60.50		1.4246E+00
			61.00		1.4216E+00
			61.50		1.4179E+00
			62.00		1.4142E+00
			62.50		1.4102E+00
			63.00		1.4062E+00
			63.50		1.4009E+00
			64.00		1.3957E+00
			64.50		1.3893E+00
			65.00		1.3828E+00
			65.50		1.3719E+00
			66.00		1.3609E+00
			66.50		1.3432E+00
			67.00		1.3254E+00
			67.50		1.2965E+00
			68.00		1.2676E+00
			68.50		1.2169E+00
			69.00		1.1661E+00
			69.50		1.0936E+00
			70.00		1.0212E+00
			70.50		931.68E-03
			71.00		842.16E-03
			71.50		748.14E-03
			72.00		654.12E-03
			72.50		569.17E-03
			73.00		484.22E-03
			73.50		417.17E-03
			74.00		350.13E-03
			74.50		305.56E-03
			75.00		261.00E-03
			75.50		236.25E-03
			76.00		211.49E-03
			76.50		196.68E-03
			77.00		181.87E-03
			77.50		172.62E-03
			78.00		163.37E-03
			78.50		156.53E-03
			79.00		149.70E-03
			79.50		144.45E-03
			80.00		139.19E-03
			80.50		135.12E-03
			81.00		131.05E-03
			81.50		127.70E-03
			82.00		124.35E-03
			82.50		121.23E-03
			83.00		118.12E-03
			83.50		115.50E-03
			84.00		112.88E-03
			84.50		110.71E-03
			85.00		108.54E-03
			85.50		106.34E-03
			86.00		104.14E-03
			86.50		102.31E-03
			87.00		100.48E-03
			87.50		98.660E-03
			88.00		96.841E-03
			88.50		95.288E-03
			89.00		93.735E-03
			89.50		92.117E-03
			90.00		90.499E-03
			90.50		88.869E-03
			91.00		87.239E-03
			91.50		85.564E-03
			92.00		83.889E-03
			92.50		82.520E-03
			93.00		81.150E-03
			93.50		79.719E-03
			94.00		78.287E-03
			94.50		76.903E-03
			95.00		75.520E-03
			95.50		74.435E-03
			96.00		73.349E-03
			96.50		72.146E-03
			97.00		70.944E-03
			97.50		70.070E-03
			98.00		69.196E-03
			98.50		68.093E-03
			99.00		66.990E-03
			99.50		65.866E-03
			100.00		64.741E-03
			100.50		63.830E-03
			101.00		62.919E-03
			101.50		62.024E-03
			102.00		61.129E-03
			102.50		60.373E-03
			103.00		59.617E-03
			103.50		58.543E-03
			104.00		57.468E-03
			104.50		56.149E-03
			105.00		54.830E-03
		END_DATA
	END_SCAN  2
	BEGIN_SCAN  3
		TASK_NAME=tba PDD Profiles
		PROGRAM=WaterTankScans
		COMMENT=PDD + 5x X
		MEAS_DATE=08-Feb-2021 10:06:46
		LINAC=TRUEBEAMSN4791
		MODALITY=X
		ISOCENTER=1000.00
		INPLANE_AXIS=Y
		CROSSPLANE_AXIS=X
		DEPTH_AXIS=Depth
		INPLANE_AXIS_DIR=TARGET_GUN
		CROSSPLANE_AXIS_DIR=LEFT_RIGHT
		DEPTH_AXIS_DIR=UP_DOWN
		ENERGY=6.00
		NOMINAL_DMAX=15.00
		SSD=900.00
		SCD=450.00
		WEDGE_ANGLE=0.00
		FIELD_INPLANE=150.00
		FIELD_CROSSPLANE=150.00
		FIELD_TYPE=RECTANGULAR
		GANTRY=0.00
		GANTRY_UPRIGHT_POSITION=0
		GANTRY_ROTATION=CW
		COLL_ANGLE=0.00
		COLL_OFFSET_INPLANE=0.00
		COLL_OFFSET_CROSSPLANE=0.00
		SCAN_DEVICE=BeamScan
		SCAN_DEVICE_SETUP=BARA_LEFT_RIGHT
		ELECTROMETER=BeamScan
		RANGE_FIELD=LOW
		RANGE_REFERENCE=MEDIUM
		DETECTOR=THIMBLE_CHAMBER
		DETECTOR_SUBCODE=SEMIFLEX
		DETECTOR_RADIUS=2.40
		DETECTOR_NAME=PTW 31021 Semiflex 3D (1)
		DETECTOR_SN=142316
		DETECTOR_CALIBRATION=588000000.00
		DETECTOR_IS_CALIBRATED=1
		DETECTOR_REFERENCE=THIMBLE_CHAMBER
		DETECTOR_REFERENCE_SUBCODE=SEMIFLEX
		DETECTOR_REFERENCE_RADIUS=2.75
		DETECTOR_REFERENCE_NAME=PTW 31010 Semiflex (1)
		DETECTOR_REFERENCE_SN=—
		DETECTOR_REFERENCE_IS_CALIBRATED=0
		DETECTOR_REFERENCE_CALIBRATION=303000000.00
		DETECTOR_HV=400.0
		DETECTOR_REFERENCE_HV=400.0
		DETECTOR_ORIENTATION=HORIZONTAL
		FILTER=FF
		SCAN_SPEED_PROFILE=12.50
		SCAN_PROF_SPEED_DEP=DEPTH
		SCAN_SPEED_PDD=12.50
		SCAN_PDD_SPEED_DEP=ENERGY
		DETECTOR_TYPE=T31021
		REF_FIELD_DEPTH=100.00
		REF_FIELD_DEFINED=ISOCENTER
		REF_FIELD_INPLANE=100.00
		REF_FIELD_CROSSPLANE=100.00
		REF_SCAN_POSITIONS=-85.00;-84.00;-83.00;-82.00;-81.00;-80.00;-79.00;-78.00;-77.00;-76.00;-75.00;-74.00;-73.00;-72.00;-71.00;-70.00;-69.00;-68.00;-67.00;-66.00;-65.00;-64.00;-63.00;-62.00;-61.00;-60.00;-59.00;-58.00;-57.00;-56.00;-55.00;-54.00;-53.00;-52.00;-51.00;-50.00;-49.00;-48.00;-47.00;-46.00;-45.00;-44.00;-43.00;-42.00;-41.00;-40.00;-39.00;-38.00;-37.00;-36.00;-35.00;-34.00;-33.00;-32.00;-31.00;-30.00;-29.00;-28.00;-27.00;-26.00;-25.00;-24.00;-23.00;-22.00;-21.00;-20.00;-19.00;-18.00;-17.00;-16.00;-15.00;-14.00;-13.00;-12.00;-11.00;-10.00;-9.00;-8.00;-7.00;-6.00;-5.00;-4.00;-3.00;-2.00;-1.00;0.00;1.00;2.00;3.00;4.00;5.00;6.00;7.00;8.00;9.00;10.00;11.00;12.00;13.00;14.00;15.00;16.00;17.00;18.00;19.00;20.00;21.00;22.00;23.00;24.00;25.00;26.00;27.00;28.00;29.00;30.00;31.00;32.00;33.00;34.00;35.00;36.00;37.00;38.00;39.00;40.00;41.00;42.00;43.00;44.00;45.00;46.00;47.00;48.00;49.00;50.00;51.00;52.00;53.00;54.00;55.00;56.00;57.00;58.00;59.00;60.00;61.00;62.00;63.00;64.00;65.00;66.00;67.00;68.00;69.00;70.00;71.00;72.00;73.00;74.00;75.00;76.00;77.00;78.00;79.00;80.00;81.00;82.00;83.00;84.00;85.00;
		REF_OVERSCAN_FACTOR=1.00
		SCAN_CURVETYPE=CROSSPLANE_PROFILE
		SCAN_DEPTH=100.00
		SCAN_OFFAXIS_INPLANE=0.00
		SCAN_OFFAXIS_CROSSPLANE=0.00
		SCAN_ANGLE=0.00
		SCAN_DIAGONAL=NOT_DIAGONAL
		SCAN_DIRECTION=POSITIVE
		MEAS_MEDIUM=WATER
		MEAS_PRESET=MEAS_CONTINUOUS_REFERENCE_SCAN
		MEAS_TIME=0.080
		MEAS_UNIT=A.U.
		INCLINATION_ANGLE=0.00
		PRESSURE=1013.25
		TEMPERATURE=20.00
		NORM_TEMPERATURE=20.00
		CORRECTION_FACTOR=1.0000
		EXPECTED_MAX_DOSE_RATE=3.00
		EPOM_DEPTH_SHIFT=0.2
		EPOM_MODE=SHIFT_PROTOCOL
		CORRECTIONS=SMOOTHED_CORR;CAX_CORR;SYMMETRY_CORR;INTERPOLATED_CORR;
		BEGIN_DATA
			-110.00		64.955E-03
			-109.50		65.291E-03
			-109.00		65.626E-03
			-108.50		66.423E-03
			-108.00		67.220E-03
			-107.50		68.073E-03
			-107.00		68.926E-03
			-106.50		69.780E-03
			-106.00		70.635E-03
			-105.50		71.841E-03
			-105.00		73.047E-03
			-104.50		73.995E-03
			-104.00		74.942E-03
			-103.50		76.147E-03
			-103.00		77.353E-03
			-102.50		78.403E-03
			-102.00		79.452E-03
			-101.50		80.375E-03
			-101.00		81.298E-03
			-100.50		82.586E-03
			-100.00		83.875E-03
			-99.50		85.136E-03
			-99.00		86.397E-03
			-98.50		87.555E-03
			-98.00		88.714E-03
			-97.50		90.098E-03
			-97.00		91.481E-03
			-96.50		93.025E-03
			-96.00		94.569E-03
			-95.50		96.002E-03
			-95.00		97.435E-03
			-94.50		98.912E-03
			-94.00		100.39E-03
			-93.50		102.04E-03
			-93.00		103.69E-03
			-92.50		105.21E-03
			-92.00		106.74E-03
			-91.50		108.34E-03
			-91.00		109.93E-03
			-90.50		112.04E-03
			-90.00		114.15E-03
			-89.50		115.93E-03
			-89.00		117.72E-03
			-88.50		119.90E-03
			-88.00		122.08E-03
			-87.50		124.35E-03
			-87.00		126.63E-03
			-86.50		129.23E-03
			-86.00		131.83E-03
			-85.50		134.71E-03
			-85.00		137.58E-03
			-84.50		141.03E-03
			-84.00		144.47E-03
