BEGIN_SCAN_DATA
	FORMAT=CC-Export V1.9                  
	FILE_CREATION_DATE=11-Mar-2022 17:39:38
	LAST_MODIFIED=11-Mar-2022 17:39:38
	BEGIN_SCAN  1
		TASK_NAME=tba PDD Profiles
		PROGRAM=WaterTankScans
		COMMENT=Gemelli
		MEAS_DATE=08-Feb-2021 09:38:10
		LINAC=MRIdian
		MODALITY=X
		ISOCENTER=900.00
		INPLANE_AXIS=Y
		CROSSPLANE_AXIS=X
		DEPTH_AXIS=Depth
		INPLANE_AXIS_DIR=TARGET_GUN
		CROSSPLANE_AXIS_DIR=LEFT_RIGHT
		DEPTH_AXIS_DIR=UP_DOWN
		ENERGY=6.00
		NOMINAL_DMAX=15.00
		SSD=850.00
		SCD=450.00
		WEDGE_ANGLE=0.00
		FIELD_INPLANE=199.20
		FIELD_CROSSPLANE=199.20
		FIELD_TYPE=RECTANGULAR
		GANTRY=0.00
		GANTRY_UPRIGHT_POSITION=0
		GANTRY_ROTATION=CW
		COLL_ANGLE=0.00
		COLL_OFFSET_INPLANE=0.00
		COLL_OFFSET_CROSSPLANE=0.00
		SCAN_DEVICE=BeamScan
		SCAN_DEVICE_SETUP=BARA_LEFT_RIGHT
		ELECTROMETER=BeamScan
		RANGE_FIELD=LOW
		RANGE_REFERENCE=MEDIUM
		DETECTOR=THIMBLE_CHAMBER
		DETECTOR_RADIUS=2.40
		DETECTOR_NAME=A28MR
		DETECTOR_SN=-
		DETECTOR_CALIBRATION=588000000.00
		DETECTOR_IS_CALIBRATED=0
		DETECTOR_REFERENCE=THIMBLE_CHAMBER
		DETECTOR_REFERENCE_RADIUS=2.75
		DETECTOR_REFERENCE_NAME=A28MR
		DETECTOR_REFERENCE_SN=—
		DETECTOR_REFERENCE_IS_CALIBRATED=0
		DETECTOR_REFERENCE_CALIBRATION=303000000.00
		DETECTOR_HV=300.0
		DETECTOR_REFERENCE_HV=300.0
		DETECTOR_ORIENTATION=HORIZONTAL
		FILTER=FFF
		SCAN_SPEED_PROFILE=10.00
		SCAN_PROF_SPEED_DEP=DEPTH
		SCAN_SPEED_PDD=0.00
		SCAN_PDD_SPEED_DEP=ENERGY
		DETECTOR_TYPE=A28MR
		REF_FIELD_DEPTH=220.00
		REF_FIELD_DEFINED=ISOCENTER
		REF_FIELD_INPLANE=100.00
		REF_FIELD_CROSSPLANE=100.00
		REF_SCAN_POSITIONS=-85.00;-84.00;-83.00;-82.00;-81.00;-80.00;-79.00;-78.00;-77.00;-76.00;-75.00;-74.00;-73.00;-72.00;-71.00;-70.00;-69.00;-68.00;-67.00;-66.00;-65.00;-64.00;-63.00;-62.00;-61.00;-60.00;-59.00;-58.00;-57.00;-56.00;-55.00;-54.00;-53.00;-52.00;-51.00;-50.00;-49.00;-48.00;-47.00;-46.00;-45.00;-44.00;-43.00;-42.00;-41.00;-40.00;-39.00;-38.00;-37.00;-36.00;-35.00;-34.00;-33.00;-32.00;-31.00;-30.00;-29.00;-28.00;-27.00;-26.00;-25.00;-24.00;-23.00;-22.00;-21.00;-20.00;-19.00;-18.00;-17.00;-16.00;-15.00;-14.00;-13.00;-12.00;-11.00;-10.00;-9.00;-8.00;-7.00;-6.00;-5.00;-4.00;-3.00;-2.00;-1.00;0.00;1.00;2.00;3.00;4.00;5.00;6.00;7.00;8.00;9.00;10.00;11.00;12.00;13.00;14.00;15.00;16.00;17.00;18.00;19.00;20.00;21.00;22.00;23.00;24.00;25.00;26.00;27.00;28.00;29.00;30.00;31.00;32.00;33.00;34.00;35.00;36.00;37.00;38.00;39.00;40.00;41.00;42.00;43.00;44.00;45.00;46.00;47.00;48.00;49.00;50.00;51.00;52.00;53.00;54.00;55.00;56.00;57.00;58.00;59.00;60.00;61.00;62.00;63.00;64.00;65.00;66.00;67.00;68.00;69.00;70.00;71.00;72.00;73.00;74.00;75.00;76.00;77.00;78.00;79.00;80.00;81.00;82.00;83.00;84.00;85.00;
		REF_OVERSCAN_FACTOR=1.00
		SCAN_CURVETYPE=CROSSPLANE_PROFILE
		SCAN_DEPTH=20.00
		SCAN_OFFAXIS_INPLANE=0.00
		SCAN_OFFAXIS_CROSSPLANE=0.00
		SCAN_ANGLE=0.00
		SCAN_DIAGONAL=NOT_DIAGONAL
		SCAN_DIRECTION=POSITIVE
		MEAS_MEDIUM=WATER
		MEAS_PRESET=MEAS_CONTINUOUS_REFERENCE_SCAN
		MEAS_TIME=0.100
		MEAS_UNIT=A.U.
		INCLINATION_ANGLE=0.00
		PRESSURE=1013.25
		TEMPERATURE=20.00
		NORM_TEMPERATURE=20.00
		CORRECTION_FACTOR=1.0000
		EXPECTED_MAX_DOSE_RATE=3.00
		EPOM_DEPTH_SHIFT=0.2
		EPOM_MODE=SHIFT_PROTOCOL
		CORRECTIONS=CAX_CORR;SMOOTHED_CORR;INTERPOLATED_CORR;SYMMETRY_CORR;
		BEGIN_DATA
			-150.00		8.1158E+00
			-149.50		8.2486E+00
			-149.00		8.3161E+00
			-148.50		8.3877E+00
			-148.00		8.4535E+00
			-147.50		8.4775E+00
			-147.00		8.5067E+00
			-146.50		8.6301E+00
			-146.00		8.7573E+00
			-145.50		8.8165E+00
			-145.00		8.8721E+00
			-144.50		8.9422E+00
			-144.00		9.0062E+00
			-143.50		9.0588E+00
			-143.00		9.1297E+00
			-142.50		9.2804E+00
			-142.00		9.4233E+00
			-141.50		9.4490E+00
			-141.00		9.4671E+00
			-140.50		9.5382E+00
			-140.00		9.6200E+00
			-139.50		9.7794E+00
			-139.00		9.9385E+00
			-138.50		9.9645E+00
			-138.00		9.9846E+00
			-137.50		10.077E+00
			-137.00		10.176E+00
			-136.50		10.312E+00
			-136.00		10.444E+00
			-135.50		10.557E+00
			-135.00		10.672E+00
			-134.50		10.780E+00
			-134.00		10.889E+00
			-133.50		10.957E+00
			-133.00		11.022E+00
			-132.50		11.140E+00
			-132.00		11.260E+00
			-131.50		11.375E+00
			-131.00		11.490E+00
			-130.50		11.615E+00
			-130.00		11.740E+00
			-129.50		11.852E+00
			-129.00		11.969E+00
			-128.50		12.126E+00
			-128.00		12.278E+00
			-127.50		12.358E+00
			-127.00		12.441E+00
			-126.50		12.592E+00
			-126.00		12.747E+00
			-125.50		12.898E+00
			-125.00		13.046E+00
			-124.50		13.174E+00
			-124.00		13.299E+00
			-123.50		13.476E+00
			-123.00		13.666E+00
			-122.50		13.840E+00
			-122.00		14.004E+00
			-121.50		14.170E+00
			-121.00		14.343E+00
			-120.50		14.518E+00
			-120.00		14.698E+00
			-119.50		14.873E+00
			-119.00		15.047E+00
			-118.50		15.257E+00
			-118.00		15.474E+00
			-117.50		15.679E+00
			-117.00		15.883E+00
			-116.50		16.102E+00
			-116.00		16.320E+00
			-115.50		16.597E+00
			-115.00		16.878E+00
			-114.50		17.104E+00
			-114.00		17.329E+00
			-113.50		17.600E+00
			-113.00		17.878E+00
			-112.50		18.237E+00
			-112.00		18.601E+00
			-111.50		18.911E+00
			-111.00		19.219E+00
			-110.50		19.555E+00
			-110.00		19.897E+00
			-109.50		20.307E+00
			-109.00		20.722E+00
			-108.50		21.146E+00
			-108.00		21.573E+00
			-107.50		22.090E+00
			-107.00		22.616E+00
			-106.50		23.306E+00
			-106.00		24.011E+00
			-105.50		24.653E+00
			-105.00		25.310E+00
			-104.50		26.412E+00
			-104.00		27.563E+00
			-103.50		29.133E+00
			-103.00		30.754E+00
			-102.50		32.938E+00
			-102.00		35.248E+00
			-101.50		38.868E+00
			-101.00		42.730E+00
			-100.50		49.168E+00
			-100.00		56.097E+00
			-99.50		67.179E+00
			-99.00		78.629E+00
			-98.50		93.077E+00
			-98.00		107.87E+00
			-97.50		124.79E+00
			-97.00		141.93E+00
			-96.50		160.17E+00
			-96.00		178.48E+00
			-95.50		196.10E+00
			-95.00		213.61E+00
			-94.50		229.51E+00
			-94.00		245.13E+00
			-93.50		257.74E+00
			-93.00		269.93E+00
			-92.50		278.20E+00
			-92.00		286.06E+00
			-91.50		291.22E+00
			-91.00		296.14E+00
			-90.50		299.61E+00
			-90.00		302.97E+00
			-89.50		305.31E+00
			-89.00		307.57E+00
			-88.50		309.60E+00
			-88.00		311.58E+00
			-87.50		313.29E+00
			-87.00		314.98E+00
			-86.50		316.52E+00
			-86.00		318.02E+00
			-85.50		319.10E+00
			-85.00		320.14E+00
			-84.50		321.15E+00
			-84.00		322.14E+00
			-83.50		323.29E+00
			-83.00		324.47E+00
			-82.50		325.51E+00
			-82.00		326.53E+00
			-81.50		327.64E+00
			-81.00		328.76E+00
			-80.50		329.86E+00
			-80.00		330.95E+00
			-79.50		331.92E+00
			-79.00		332.86E+00
			-78.50		333.73E+00
			-78.00		334.59E+00
			-77.50		335.54E+00
			-77.00		336.49E+00
			-76.50		337.50E+00
			-76.00		338.51E+00
			-75.50		339.49E+00
			-75.00		340.45E+00
			-74.50		341.39E+00
			-74.00		342.33E+00
			-73.50		343.27E+00
			-73.00		344.23E+00
			-72.50		345.17E+00
			-72.00		346.10E+00
			-71.50		346.98E+00
			-71.00		347.86E+00
			-70.50		348.77E+00
			-70.00		349.71E+00
			-69.50		350.68E+00
			-69.00		351.65E+00
			-68.50		352.49E+00
			-68.00		353.32E+00
			-67.50		354.17E+00
			-67.00		355.02E+00
			-66.50		356.01E+00
			-66.00		357.02E+00
			-65.50		357.93E+00
			-65.00		358.85E+00
			-64.50		359.64E+00
			-64.00		360.41E+00
			-63.50		361.20E+00
			-63.00		361.99E+00
			-62.50		362.86E+00
			-62.00		363.73E+00
			-61.50		364.58E+00
			-61.00		365.42E+00
			-60.50		366.20E+00
			-60.00		366.96E+00
			-59.50		367.70E+00
			-59.00		368.45E+00
			-58.50		369.24E+00
			-58.00		370.07E+00
			-57.50		370.99E+00
			-57.00		371.92E+00
			-56.50		372.78E+00
			-56.00		373.61E+00
			-55.50		374.39E+00
			-55.00		375.17E+00
			-54.50		376.09E+00
			-54.00		377.01E+00
			-53.50		377.92E+00
			-53.00		378.83E+00
			-52.50		379.63E+00
			-52.00		380.44E+00
			-51.50		381.30E+00
			-51.00		382.18E+00
			-50.50		383.08E+00
			-50.00		383.98E+00
			-49.50		384.83E+00
			-49.00		385.68E+00
			-48.50		386.59E+00
			-48.00		387.51E+00
			-47.50		388.47E+00
			-47.00		389.45E+00
			-46.50		390.39E+00
			-46.00		391.31E+00
			-45.50		392.14E+00
			-45.00		392.97E+00
			-44.50		393.78E+00
			-44.00		394.61E+00
			-43.50		395.47E+00
			-43.00		396.32E+00
			-42.50		397.08E+00
			-42.00		397.84E+00
			-41.50		398.52E+00
			-41.00		399.23E+00
			-40.50		400.04E+00
			-40.00		400.84E+00
			-39.50		401.64E+00
			-39.00		402.42E+00
			-38.50		403.17E+00
			-38.00		403.92E+00
			-37.50		404.75E+00
			-37.00		405.59E+00
			-36.50		406.43E+00
			-36.00		407.26E+00
			-35.50		407.96E+00
			-35.00		408.65E+00
			-34.50		409.34E+00
			-34.00		410.04E+00
			-33.50		410.77E+00
			-33.00		411.49E+00
			-32.50		412.14E+00
			-32.00		412.77E+00
			-31.50		413.39E+00
			-31.00		413.99E+00
			-30.50		414.61E+00
			-30.00		415.23E+00
			-29.50		415.90E+00
			-29.00		416.56E+00
			-28.50		417.21E+00
			-28.00		417.89E+00
			-27.50		418.48E+00
			-27.00		419.07E+00
			-26.50		419.70E+00
			-26.00		420.32E+00
			-25.50		421.04E+00
			-25.00		421.76E+00
			-24.50		422.43E+00
			-24.00		423.10E+00
			-23.50		423.60E+00
			-23.00		424.10E+00
			-22.50		424.60E+00
			-22.00		425.13E+00
			-21.50		425.78E+00
			-21.00		426.43E+00
			-20.50		427.01E+00
			-20.00		427.58E+00
			-19.50		427.99E+00
			-19.00		428.39E+00
			-18.50		428.80E+00
			-18.00		429.22E+00
			-17.50		429.60E+00
			-17.00		429.98E+00
			-16.50		430.32E+00
			-16.00		430.65E+00
			-15.50		431.02E+00
			-15.00		431.38E+00
			-14.50		431.68E+00
			-14.00		431.97E+00
			-13.50		432.24E+00
			-13.00		432.52E+00
			-12.50		432.89E+00
			-12.00		433.29E+00
			-11.50		433.63E+00
			-11.00		433.96E+00
			-10.50		434.17E+00
			-10.00		434.37E+00
			-9.50		434.60E+00
			-9.00		434.84E+00
			-8.50		435.09E+00
			-8.00		435.32E+00
			-7.50		435.42E+00
			-7.00		435.51E+00
			-6.50		435.55E+00
			-6.00		435.63E+00
			-5.50		435.78E+00
			-5.00		435.95E+00
			-4.50		436.15E+00
			-4.00		436.35E+00
			-3.50		436.49E+00
			-3.00		436.60E+00
			-2.50		436.63E+00
			-2.00		436.64E+00
			-1.50		436.52E+00
			-1.00		436.41E+00
			-0.50		436.30E+00
			0.00		436.21E+00
			0.50		436.30E+00
			1.00		436.41E+00
			1.50		436.52E+00
			2.00		436.64E+00
			2.50		436.63E+00
			3.00		436.60E+00
			3.50		436.49E+00
			4.00		436.35E+00
			4.50		436.15E+00
			5.00		435.95E+00
			5.50		435.78E+00
			6.00		435.63E+00
			6.50		435.55E+00
			7.00		435.51E+00
			7.50		435.42E+00
			8.00		435.32E+00
			8.50		435.09E+00
			9.00		434.84E+00
			9.50		434.60E+00
			10.00		434.37E+00
			10.50		434.17E+00
			11.00		433.96E+00
			11.50		433.63E+00
			12.00		433.29E+00
			12.50		432.89E+00
			13.00		432.52E+00
			13.50		432.24E+00
			14.00		431.97E+00
			14.50		431.68E+00
			15.00		431.38E+00
			15.50		431.02E+00
			16.00		430.65E+00
			16.50		430.32E+00
			17.00		429.98E+00
			17.50		429.60E+00
			18.00		429.22E+00
			18.50		428.80E+00
			19.00		428.39E+00
			19.50		427.99E+00
			20.00		427.58E+00
			20.50		427.01E+00
			21.00		426.43E+00
			21.50		425.78E+00
			22.00		425.13E+00
			22.50		424.60E+00
			23.00		424.10E+00
			23.50		423.60E+00
			24.00		423.10E+00
			24.50		422.43E+00
			25.00		421.76E+00
			25.50		421.04E+00
			26.00		420.32E+00
			26.50		419.70E+00
			27.00		419.07E+00
			27.50		418.48E+00
			28.00		417.89E+00
			28.50		417.21E+00
			29.00		416.56E+00
			29.50		415.90E+00
			30.00		415.23E+00
			30.50		414.61E+00
			31.00		413.99E+00
			31.50		413.39E+00
			32.00		412.77E+00
			32.50		412.14E+00
			33.00		411.49E+00
			33.50		410.77E+00
			34.00		410.04E+00
			34.50		409.34E+00
			35.00		408.65E+00
			35.50		407.96E+00
			36.00		407.26E+00
			36.50		406.43E+00
			37.00		405.59E+00
			37.50		404.75E+00
			38.00		403.92E+00
			38.50		403.17E+00
			39.00		402.42E+00
			39.50		401.64E+00
			40.00		400.84E+00
			40.50		400.04E+00
			41.00		399.23E+00
			41.50		398.52E+00
			42.00		397.84E+00
			42.50		397.08E+00
			43.00		396.32E+00
			43.50		395.47E+00
			44.00		394.61E+00
			44.50		393.78E+00
			45.00		392.97E+00
			45.50		392.14E+00
			46.00		391.31E+00
			46.50		390.39E+00
			47.00		389.45E+00
			47.50		388.47E+00
			48.00		387.51E+00
			48.50		386.59E+00
			49.00		385.68E+00
			49.50		384.83E+00
			50.00		383.98E+00
			50.50		383.08E+00
			51.00		382.18E+00
			51.50		381.30E+00
			52.00		380.44E+00
			52.50		379.63E+00
			53.00		378.83E+00
			53.50		377.92E+00
			54.00		377.01E+00
			54.50		376.09E+00
			55.00		375.17E+00
			55.50		374.39E+00
			56.00		373.61E+00
			56.50		372.78E+00
			57.00		371.92E+00
			57.50		370.99E+00
			58.00		370.07E+00
			58.50		369.24E+00
			59.00		368.45E+00
			59.50		367.70E+00
			60.00		366.96E+00
			60.50		366.20E+00
			61.00		365.42E+00
			61.50		364.58E+00
			62.00		363.73E+00
			62.50		362.86E+00
			63.00		361.99E+00
			63.50		361.20E+00
			64.00		360.41E+00
			64.50		359.64E+00
			65.00		358.85E+00
			65.50		357.93E+00
			66.00		357.02E+00
			66.50		356.01E+00
			67.00		355.02E+00
			67.50		354.17E+00
			68.00		353.32E+00
			68.50		352.49E+00
			69.00		351.65E+00
			69.50		350.68E+00
			70.00		349.71E+00
			70.50		348.77E+00
			71.00		347.86E+00
			71.50		346.98E+00
			72.00		346.10E+00
			72.50		345.17E+00
			73.00		344.23E+00
			73.50		343.27E+00
			74.00		342.33E+00
			74.50		341.39E+00
			75.00		340.45E+00
			75.50		339.49E+00
			76.00		338.51E+00
			76.50		337.50E+00
			77.00		336.49E+00
			77.50		335.54E+00
			78.00		334.59E+00
			78.50		333.73E+00
			79.00		332.86E+00
			79.50		331.92E+00
			80.00		330.95E+00
			80.50		329.86E+00
			81.00		328.76E+00
			81.50		327.64E+00
			82.00		326.53E+00
			82.50		325.51E+00
			83.00		324.47E+00
			83.50		323.29E+00
			84.00		322.14E+00
			84.50		321.15E+00
			85.00		320.14E+00
			85.50		319.10E+00
			86.00		318.02E+00
			86.50		316.52E+00
			87.00		314.98E+00
			87.50		313.29E+00
			88.00		311.58E+00
			88.50		309.60E+00
			89.00		307.57E+00
			89.50		305.31E+00
			90.00		302.97E+00
			90.50		299.61E+00
			91.00		296.14E+00
			91.50		291.22E+00
			92.00		286.06E+00
			92.50		278.20E+00
			93.00		269.93E+00
			93.50		257.74E+00
			94.00		245.13E+00
			94.50		229.51E+00
			95.00		213.61E+00
			95.50		196.10E+00
			96.00		178.48E+00
			96.50		160.17E+00
			97.00		141.93E+00
			97.50		124.79E+00
			98.00		107.87E+00
			98.50		93.077E+00
			99.00		78.629E+00
			99.50		67.179E+00
			100.00		56.097E+00
			100.50		49.168E+00
			101.00		42.730E+00
			101.50		38.868E+00
			102.00		35.248E+00
			102.50		32.938E+00
			103.00		30.754E+00
			103.50		29.133E+00
			104.00		27.563E+00
			104.50		26.412E+00
			105.00		25.310E+00
			105.50		24.653E+00
			106.00		24.011E+00
			106.50		23.306E+00
			107.00		22.616E+00
			107.50		22.090E+00
			108.00		21.573E+00
			108.50		21.146E+00
			109.00		20.722E+00
			109.50		20.307E+00
			110.00		19.897E+00
			110.50		19.555E+00
			111.00		19.219E+00
			111.50		18.911E+00
			112.00		18.601E+00
			112.50		18.237E+00
			113.00		17.878E+00
			113.50		17.600E+00
			114.00		17.329E+00
			114.50		17.104E+00
			115.00		16.878E+00
			115.50		16.597E+00
			116.00		16.320E+00
			116.50		16.102E+00
			117.00		15.883E+00
			117.50		15.679E+00
			118.00		15.474E+00
			118.50		15.257E+00
			119.00		15.047E+00
			119.50		14.873E+00
			120.00		14.698E+00
			120.50		14.518E+00
			121.00		14.343E+00
			121.50		14.170E+00
			122.00		14.004E+00
			122.50		13.840E+00
			123.00		13.666E+00
			123.50		13.476E+00
			124.00		13.299E+00
			124.50		13.174E+00
			125.00		13.046E+00
			125.50		12.898E+00
			126.00		12.747E+00
			126.50		12.592E+00
			127.00		12.441E+00
			127.50		12.358E+00
			128.00		12.278E+00
			128.50		12.126E+00
			129.00		11.969E+00
			129.50		11.852E+00
			130.00		11.740E+00
			130.50		11.615E+00
			131.00		11.490E+00
			131.50		11.375E+00
			132.00		11.260E+00
			132.50		11.140E+00
			133.00		11.022E+00
			133.50		10.957E+00
			134.00		10.889E+00
			134.50		10.780E+00
			135.00		10.672E+00
			135.50		10.557E+00
			136.00		10.444E+00
			136.50		10.312E+00
			137.00		10.176E+00
			137.50		10.077E+00
			138.00		9.9846E+00
			138.50		9.9645E+00
			139.00		9.9385E+00
			139.50		9.7794E+00
			140.00		9.6200E+00
			140.50		9.5382E+00
			141.00		9.4671E+00
			141.50		9.4490E+00
			142.00		9.4233E+00
			142.50		9.2804E+00
			143.00		9.1297E+00
			143.50		9.0588E+00
			144.00		9.0062E+00
			144.50		8.9422E+00
			145.00		8.8721E+00
			145.50		8.8165E+00
			146.00		8.7573E+00
			146.50		8.6301E+00
			147.00		8.5067E+00
			147.50		8.4775E+00
			148.00		8.4535E+00
			148.50		8.3877E+00
			149.00		8.3161E+00
			149.50		8.2486E+00
			150.00		8.1158E+00
		END_DATA
	END_SCAN  1
	BEGIN_SCAN  2
		TASK_NAME=tba PDD Profiles
		PROGRAM=WaterTankScans
		COMMENT=Gemelli
		MEAS_DATE=08-Feb-2021 09:38:10
		LINAC=MRIdian
		MODALITY=X
		ISOCENTER=900.00
		INPLANE_AXIS=Y
		CROSSPLANE_AXIS=X
		DEPTH_AXIS=Depth
		INPLANE_AXIS_DIR=TARGET_GUN
		CROSSPLANE_AXIS_DIR=LEFT_RIGHT
		DEPTH_AXIS_DIR=UP_DOWN
		ENERGY=6.00
		NOMINAL_DMAX=15.00
		SSD=850.00
		SCD=450.00
		WEDGE_ANGLE=0.00
		FIELD_INPLANE=199.20
		FIELD_CROSSPLANE=199.20
		FIELD_TYPE=RECTANGULAR
		GANTRY=0.00
		GANTRY_UPRIGHT_POSITION=0
		GANTRY_ROTATION=CW
		COLL_ANGLE=0.00
		COLL_OFFSET_INPLANE=0.00
		COLL_OFFSET_CROSSPLANE=0.00
		SCAN_DEVICE=BeamScan
		SCAN_DEVICE_SETUP=BARA_LEFT_RIGHT
		ELECTROMETER=BeamScan
		RANGE_FIELD=LOW
		RANGE_REFERENCE=MEDIUM
		DETECTOR=THIMBLE_CHAMBER
		DETECTOR_RADIUS=2.40
		DETECTOR_NAME=A28MR
		DETECTOR_SN=-
		DETECTOR_CALIBRATION=588000000.00
		DETECTOR_IS_CALIBRATED=0
		DETECTOR_REFERENCE=THIMBLE_CHAMBER
		DETECTOR_REFERENCE_RADIUS=2.75
		DETECTOR_REFERENCE_NAME=A28MR
		DETECTOR_REFERENCE_SN=—
		DETECTOR_REFERENCE_IS_CALIBRATED=0
		DETECTOR_REFERENCE_CALIBRATION=303000000.00
		DETECTOR_HV=300.0
		DETECTOR_REFERENCE_HV=300.0
		DETECTOR_ORIENTATION=HORIZONTAL
		FILTER=FFF
		SCAN_SPEED_PROFILE=10.00
		SCAN_PROF_SPEED_DEP=DEPTH
		SCAN_SPEED_PDD=0.00
		SCAN_PDD_SPEED_DEP=ENERGY
		DETECTOR_TYPE=A28MR
		REF_FIELD_DEPTH=220.00
		REF_FIELD_DEFINED=ISOCENTER
		REF_FIELD_INPLANE=100.00
		REF_FIELD_CROSSPLANE=100.00
		REF_SCAN_POSITIONS=-85.00;-84.00;-83.00;-82.00;-81.00;-80.00;-79.00;-78.00;-77.00;-76.00;-75.00;-74.00;-73.00;-72.00;-71.00;-70.00;-69.00;-68.00;-67.00;-66.00;-65.00;-64.00;-63.00;-62.00;-61.00;-60.00;-59.00;-58.00;-57.00;-56.00;-55.00;-54.00;-53.00;-52.00;-51.00;-50.00;-49.00;-48.00;-47.00;-46.00;-45.00;-44.00;-43.00;-42.00;-41.00;-40.00;-39.00;-38.00;-37.00;-36.00;-35.00;-34.00;-33.00;-32.00;-31.00;-30.00;-29.00;-28.00;-27.00;-26.00;-25.00;-24.00;-23.00;-22.00;-21.00;-20.00;-19.00;-18.00;-17.00;-16.00;-15.00;-14.00;-13.00;-12.00;-11.00;-10.00;-9.00;-8.00;-7.00;-6.00;-5.00;-4.00;-3.00;-2.00;-1.00;0.00;1.00;2.00;3.00;4.00;5.00;6.00;7.00;8.00;9.00;10.00;11.00;12.00;13.00;14.00;15.00;16.00;17.00;18.00;19.00;20.00;21.00;22.00;23.00;24.00;25.00;26.00;27.00;28.00;29.00;30.00;31.00;32.00;33.00;34.00;35.00;36.00;37.00;38.00;39.00;40.00;41.00;42.00;43.00;44.00;45.00;46.00;47.00;48.00;49.00;50.00;51.00;52.00;53.00;54.00;55.00;56.00;57.00;58.00;59.00;60.00;61.00;62.00;63.00;64.00;65.00;66.00;67.00;68.00;69.00;70.00;71.00;72.00;73.00;74.00;75.00;76.00;77.00;78.00;79.00;80.00;81.00;82.00;83.00;84.00;85.00;
		REF_OVERSCAN_FACTOR=1.00
		SCAN_CURVETYPE=CROSSPLANE_PROFILE
		SCAN_DEPTH=55.00
		SCAN_OFFAXIS_INPLANE=0.00
		SCAN_OFFAXIS_CROSSPLANE=0.00
		SCAN_ANGLE=0.00
		SCAN_DIAGONAL=NOT_DIAGONAL
		SCAN_DIRECTION=POSITIVE
		MEAS_MEDIUM=WATER
		MEAS_PRESET=MEAS_CONTINUOUS_REFERENCE_SCAN
		MEAS_TIME=0.100
		MEAS_UNIT=A.U.
		INCLINATION_ANGLE=0.00
		PRESSURE=1013.25
		TEMPERATURE=20.00
		NORM_TEMPERATURE=20.00
		CORRECTION_FACTOR=1.0000
		EXPECTED_MAX_DOSE_RATE=3.00
		EPOM_DEPTH_SHIFT=0.2
		EPOM_MODE=SHIFT_PROTOCOL
		CORRECTIONS=CAX_CORR;SMOOTHED_CORR;INTERPOLATED_CORR;SYMMETRY_CORR;
		BEGIN_DATA
			-150.00		10.593E+00
			-149.50		10.632E+00
			-149.00		10.717E+00
			-148.50		10.808E+00
			-148.00		10.907E+00
			-147.50		10.981E+00
			-147.00		11.076E+00
			-146.50		11.212E+00
			-146.00		11.326E+00
			-145.50		11.431E+00
			-145.00		11.564E+00
			-144.50		11.704E+00
			-144.00		11.823E+00
			-143.50		11.950E+00
			-143.00		12.070E+00
			-142.50		12.136E+00
			-142.00		12.203E+00
			-141.50		12.340E+00
			-141.00		12.496E+00
			-140.50		12.605E+00
			-140.00		12.697E+00
			-139.50		12.825E+00
			-139.00		12.979E+00
			-138.50		13.102E+00
			-138.00		13.189E+00
			-137.50		13.323E+00
			-137.00		13.506E+00
			-136.50		13.695E+00
			-136.00		13.885E+00
			-135.50		14.052E+00
			-135.00		14.189E+00
			-134.50		14.345E+00
			-134.00		14.526E+00
			-133.50		14.682E+00
			-133.00		14.825E+00
			-132.50		14.996E+00
			-132.00		15.163E+00
			-131.50		15.328E+00
			-131.00		15.534E+00
			-130.50		15.770E+00
			-130.00		15.955E+00
			-129.50		16.087E+00
			-129.00		16.272E+00
			-128.50		16.499E+00
			-128.00		16.702E+00
			-127.50		16.885E+00
			-127.00		17.059E+00
			-126.50		17.235E+00
			-126.00		17.451E+00
			-125.50		17.746E+00
			-125.00		18.044E+00
			-124.50		18.280E+00
			-124.00		18.500E+00
			-123.50		18.727E+00
			-123.00		18.972E+00
			-122.50		19.248E+00
			-122.00		19.514E+00
			-121.50		19.751E+00
			-121.00		20.030E+00
			-120.50		20.369E+00
			-120.00		20.656E+00
			-119.50		20.885E+00
			-119.00		21.175E+00
			-118.50		21.545E+00
			-118.00		21.934E+00
			-117.50		22.311E+00
			-117.00		22.625E+00
			-116.50		22.907E+00
			-116.00		23.274E+00
			-115.50		23.764E+00
			-115.00		24.245E+00
			-114.50		24.651E+00
			-114.00		25.035E+00
			-113.50		25.466E+00
			-113.00		25.959E+00
			-112.50		26.501E+00
			-112.00		27.070E+00
			-111.50		27.653E+00
			-111.00		28.260E+00
			-110.50		28.918E+00
			-110.00		29.606E+00
			-109.50		30.374E+00
			-109.00		31.248E+00
			-108.50		32.222E+00
			-108.00		33.330E+00
			-107.50		34.647E+00
			-107.00		36.173E+00
			-106.50		37.955E+00
			-106.00		40.098E+00
			-105.50		42.894E+00
			-105.00		46.348E+00
			-104.50		50.902E+00
			-104.00		56.618E+00
			-103.50		64.169E+00
			-103.00		73.152E+00
			-102.50		83.472E+00
			-102.00		94.837E+00
			-101.50		107.31E+00
			-101.00		120.40E+00
			-100.50		134.00E+00
			-100.00		147.87E+00
			-99.50		161.60E+00
			-99.00		174.86E+00
			-98.50		187.40E+00
			-98.00		199.31E+00
			-97.50		210.10E+00
			-97.00		219.46E+00
			-96.50		226.95E+00
			-96.00		233.44E+00
			-95.50		238.71E+00
			-95.00		242.82E+00
			-94.50		246.08E+00
			-94.00		249.01E+00
			-93.50		251.53E+00
			-93.00		253.82E+00
			-92.50		255.82E+00
			-92.00		257.48E+00
			-91.50		258.93E+00
			-91.00		260.35E+00
			-90.50		261.65E+00
			-90.00		262.96E+00
			-89.50		264.23E+00
			-89.00		265.47E+00
			-88.50		266.66E+00
			-88.00		267.78E+00
			-87.50		268.83E+00
			-87.00		269.84E+00
			-86.50		270.79E+00
			-86.00		271.73E+00
			-85.50		272.65E+00
			-85.00		273.56E+00
			-84.50		274.46E+00
			-84.00		275.35E+00
			-83.50		276.28E+00
			-83.00		277.23E+00
			-82.50		278.21E+00
			-82.00		279.22E+00
			-81.50		280.22E+00
			-81.00		281.19E+00
			-80.50		282.11E+00
			-80.00		282.98E+00
			-79.50		283.80E+00
			-79.00		284.61E+00
			-78.50		285.40E+00
			-78.00		286.21E+00
			-77.50		287.04E+00
			-77.00		287.88E+00
			-76.50		288.76E+00
			-76.00		289.63E+00
			-75.50		290.53E+00
			-75.00		291.43E+00
			-74.50		292.30E+00
			-74.00		293.15E+00
			-73.50		293.96E+00
			-73.00		294.71E+00
			-72.50		295.45E+00
			-72.00		296.19E+00
			-71.50		296.95E+00
			-71.00		297.72E+00
			-70.50		298.51E+00
			-70.00		299.28E+00
			-69.50		300.04E+00
			-69.00		300.79E+00
			-68.50		301.53E+00
			-68.00		302.27E+00
			-67.50		302.99E+00
			-67.00		303.73E+00
			-66.50		304.48E+00
			-66.00		305.24E+00
			-65.50		306.04E+00
			-65.00		306.83E+00
			-64.50		307.64E+00
			-64.00		308.45E+00
			-63.50		309.25E+00
			-63.00		310.04E+00
			-62.50		310.82E+00
			-62.00		311.57E+00
			-61.50		312.28E+00
			-61.00		312.97E+00
			-60.50		313.64E+00
			-60.00		314.32E+00
			-59.50		315.01E+00
			-59.00		315.73E+00
			-58.50		316.47E+00
			-58.00		317.23E+00
			-57.50		317.97E+00
			-57.00		318.69E+00
			-56.50		319.39E+00
			-56.00		320.10E+00
			-55.50		320.82E+00
			-55.00		321.57E+00
			-54.50		322.33E+00
			-54.00		323.06E+00
			-53.50		323.78E+00
			-53.00		324.46E+00
			-52.50		325.14E+00
			-52.00		325.84E+00
			-51.50		326.56E+00
			-51.00		327.32E+00
			-50.50		328.09E+00
			-50.00		328.85E+00
			-49.50		329.59E+00
			-49.00		330.31E+00
			-48.50		331.02E+00
			-48.00		331.72E+00
			-47.50		332.45E+00
			-47.00		333.16E+00
			-46.50		333.89E+00
			-46.00		334.60E+00
			-45.50		335.34E+00
			-45.00		336.07E+00
			-44.50		336.82E+00
			-44.00		337.57E+00
			-43.50		338.28E+00
			-43.00		338.96E+00
			-42.50		339.60E+00
			-42.00		340.20E+00
			-41.50		340.79E+00
			-41.00		341.41E+00
			-40.50		342.07E+00
			-40.00		342.74E+00
			-39.50		343.44E+00
			-39.00		344.10E+00
			-38.50		344.73E+00
			-38.00		345.30E+00
			-37.50		345.85E+00
			-37.00		346.39E+00
			-36.50		346.94E+00
			-36.00		347.52E+00
			-35.50		348.11E+00
			-35.00		348.71E+00
			-34.50		349.29E+00
			-34.00		349.84E+00
			-33.50		350.38E+00
			-33.00		350.90E+00
			-32.50		351.45E+00
			-32.00		352.01E+00
			-31.50		352.60E+00
			-31.00		353.20E+00
			-30.50		353.80E+00
			-30.00		354.41E+00
			-29.50		354.99E+00
			-29.00		355.55E+00
			-28.50		356.09E+00
			-28.00		356.60E+00
			-27.50		357.08E+00
			-27.00		357.52E+00
			-26.50		357.94E+00
			-26.00		358.36E+00
			-25.50		358.78E+00
			-25.00		359.20E+00
			-24.50		359.61E+00
			-24.00		360.02E+00
			-23.50		360.41E+00
			-23.00		360.80E+00
			-22.50		361.23E+00
			-22.00		361.70E+00
			-21.50		362.21E+00
			-21.00		362.74E+00
			-20.50		363.26E+00
			-20.00		363.71E+00
			-19.50		364.09E+00
			-19.00		364.41E+00
			-18.50		364.67E+00
			-18.00		364.93E+00
			-17.50		365.18E+00
			-17.00		365.46E+00
			-16.50		365.79E+00
			-16.00		366.13E+00
			-15.50		366.48E+00
			-15.00		366.82E+00
			-14.50		367.14E+00
			-14.00		367.45E+00
			-13.50		367.73E+00
			-13.00		367.99E+00
			-12.50		368.24E+00
			-12.00		368.45E+00
			-11.50		368.63E+00
			-11.00		368.82E+00
			-10.50		369.02E+00
			-10.00		369.24E+00
			-9.50		369.49E+00
			-9.00		369.73E+00
			-8.50		369.93E+00
			-8.00		370.08E+00
			-7.50		370.17E+00
			-7.00		370.23E+00
			-6.50		370.32E+00
			-6.00		370.42E+00
			-5.50		370.58E+00
			-5.00		370.77E+00
			-4.50		370.98E+00
			-4.00		371.17E+00
			-3.50		371.31E+00
			-3.00		371.40E+00
			-2.50		371.41E+00
			-2.00		371.37E+00
			-1.50		371.33E+00
			-1.00		371.27E+00
			-0.50		371.23E+00
			0.00		371.23E+00
			0.50		371.23E+00
			1.00		371.27E+00
			1.50		371.33E+00
			2.00		371.37E+00
			2.50		371.41E+00
			3.00		371.40E+00
			3.50		371.31E+00
			4.00		371.17E+00
			4.50		370.98E+00
			5.00		370.77E+00
			5.50		370.58E+00
			6.00		370.42E+00
			6.50		370.32E+00
			7.00		370.23E+00
			7.50		370.17E+00
			8.00		370.08E+00
			8.50		369.93E+00
			9.00		369.73E+00
			9.50		369.49E+00
			10.00		369.24E+00
			10.50		369.02E+00
			11.00		368.82E+00
			11.50		368.63E+00
			12.00		368.45E+00
			12.50		368.24E+00
			13.00		367.99E+00
			13.50		367.73E+00
			14.00		367.45E+00
			14.50		367.14E+00
			15.00		366.82E+00
			15.50		366.48E+00
			16.00		366.13E+00
			16.50		365.79E+00
			17.00		365.46E+00
			17.50		365.18E+00
			18.00		364.93E+00
			18.50		364.67E+00
			19.00		364.41E+00
			19.50		364.09E+00
			20.00		363.71E+00
			20.50		363.26E+00
			21.00		362.74E+00
			21.50		362.21E+00
			22.00		361.70E+00
			22.50		361.23E+00
			23.00		360.80E+00
			23.50		360.41E+00
			24.00		360.02E+00
			24.50		359.61E+00
			25.00		359.20E+00
			25.50		358.78E+00
			26.00		358.36E+00
			26.50		357.94E+00
			27.00		357.52E+00
			27.50		357.08E+00
			28.00		356.60E+00
			28.50		356.09E+00
			29.00		355.55E+00
			29.50		354.99E+00
			30.00		354.41E+00
			30.50		353.80E+00
			31.00		353.20E+00
			31.50		352.60E+00
			32.00		352.01E+00
			32.50		351.45E+00
			33.00		350.90E+00
			33.50		350.38E+00
			34.00		349.84E+00
			34.50		349.29E+00
			35.00		348.71E+00
			35.50		348.11E+00
			36.00		347.52E+00
			36.50		346.94E+00
			37.00		346.39E+00
			37.50		345.85E+00
			38.00		345.30E+00
			38.50		344.73E+00
			39.00		344.10E+00
			39.50		343.44E+00
			40.00		342.74E+00
			40.50		342.07E+00
			41.00		341.41E+00
			41.50		340.79E+00
			42.00		340.20E+00
			42.50		339.60E+00
			43.00		338.96E+00
			43.50		338.28E+00
			44.00		337.57E+00
			44.50		336.82E+00
			45.00		336.07E+00
			45.50		335.34E+00
			46.00		334.60E+00
			46.50		333.89E+00
			47.00		333.16E+00
			47.50		332.45E+00
			48.00		331.72E+00
			48.50		331.02E+00
			49.00		330.31E+00
			49.50		329.59E+00
			50.00		328.85E+00
			50.50		328.09E+00
			51.00		327.32E+00
			51.50		326.56E+00
			52.00		325.84E+00
			52.50		325.14E+00
			53.00		324.46E+00
			53.50		323.78E+00
			54.00		323.06E+00
			54.50		322.33E+00
			55.00		321.57E+00
			55.50		320.82E+00
			56.00		320.10E+00
			56.50		319.39E+00
			57.00		318.69E+00
			57.50		317.97E+00
			58.00		317.23E+00
			58.50		316.47E+00
			59.00		315.73E+00
			59.50		315.01E+00
			60.00		314.32E+00
			60.50		313.64E+00
			61.00		312.97E+00
			61.50		312.28E+00
			62.00		311.57E+00
			62.50		310.82E+00
			63.00		310.04E+00
			63.50		309.25E+00
			64.00		308.45E+00
			64.50		307.64E+00
			65.00		306.83E+00
			65.50		306.04E+00
			66.00		305.24E+00
			66.50		304.48E+00
			67.00		303.73E+00
			67.50		302.99E+00
			68.00		302.27E+00
			68.50		301.53E+00
			69.00		300.79E+00
			69.50		300.04E+00
			70.00		299.28E+00
			70.50		298.51E+00
			71.00		297.72E+00
			71.50		296.95E+00
			72.00		296.19E+00
			72.50		295.45E+00
			73.00		294.71E+00
			73.50		293.96E+00
			74.00		293.15E+00
			74.50		292.30E+00
			75.00		291.43E+00
			75.50		290.53E+00
			76.00		289.63E+00
			76.50		288.76E+00
			77.00		287.88E+00
			77.50		287.04E+00
			78.00		286.21E+00
			78.50		285.40E+00
			79.00		284.61E+00
			79.50		283.80E+00
			80.00		282.98E+00
			80.50		282.11E+00
			81.00		281.19E+00
			81.50		280.22E+00
			82.00		279.22E+00
			82.50		278.21E+00
			83.00		277.23E+00
			83.50		276.28E+00
			84.00		275.35E+00
			84.50		274.46E+00
			85.00		273.56E+00
			85.50		272.65E+00
			86.00		271.73E+00
			86.50		270.79E+00
			87.00		269.84E+00
			87.50		268.83E+00
			88.00		267.78E+00
			88.50		266.66E+00
			89.00		265.47E+00
			89.50		264.23E+00
			90.00		262.96E+00
			90.50		261.65E+00
