BEGIN_SCAN_DATA
	FORMAT=CC-Export V1.9                  
	FILE_CREATION_DATE=11-Mar-2022 18:22:01
	LAST_MODIFIED=11-Mar-2022 18:22:01
	BEGIN_SCAN  1
		TASK_NAME=tba PDD Profiles
		PROGRAM=WaterTankScans
		COMMENT=FBF_SanPietro
		MEAS_DATE=08-Feb-2021 09:38:10
		LINAC=MRIdian
		MODALITY=X
		ISOCENTER=900.00
		INPLANE_AXIS=Y
		CROSSPLANE_AXIS=X
		DEPTH_AXIS=Depth
		INPLANE_AXIS_DIR=TARGET_GUN
		CROSSPLANE_AXIS_DIR=LEFT_RIGHT
		DEPTH_AXIS_DIR=UP_DOWN
		ENERGY=6.00
		NOMINAL_DMAX=15.00
		SSD=850.00
		SCD=450.00
		WEDGE_ANGLE=0.00
		FIELD_INPLANE=240.70
		FIELD_CROSSPLANE=240.70
		FIELD_TYPE=RECTANGULAR
		GANTRY=0.00
		GANTRY_UPRIGHT_POSITION=0
		GANTRY_ROTATION=CW
		COLL_ANGLE=0.00
		COLL_OFFSET_INPLANE=0.00
		COLL_OFFSET_CROSSPLANE=0.00
		SCAN_DEVICE=BeamScan
		SCAN_DEVICE_SETUP=BARA_LEFT_RIGHT
		ELECTROMETER=BeamScan
		RANGE_FIELD=LOW
		RANGE_REFERENCE=MEDIUM
		DETECTOR=THIMBLE_CHAMBER
		DETECTOR_RADIUS=2.40
		DETECTOR_NAME=A28MR
		DETECTOR_SN=-
		DETECTOR_CALIBRATION=588000000.00
		DETECTOR_IS_CALIBRATED=0
		DETECTOR_REFERENCE=THIMBLE_CHAMBER
		DETECTOR_REFERENCE_RADIUS=2.75
		DETECTOR_REFERENCE_NAME=A28MR
		DETECTOR_REFERENCE_SN=—
		DETECTOR_REFERENCE_IS_CALIBRATED=0
		DETECTOR_REFERENCE_CALIBRATION=303000000.00
		DETECTOR_HV=300.0
		DETECTOR_REFERENCE_HV=300.0
		DETECTOR_ORIENTATION=HORIZONTAL
		FILTER=FFF
		SCAN_SPEED_PROFILE=10.00
		SCAN_PROF_SPEED_DEP=DEPTH
		SCAN_SPEED_PDD=0.00
		SCAN_PDD_SPEED_DEP=ENERGY
		DETECTOR_TYPE=A28MR
		REF_FIELD_DEPTH=220.00
		REF_FIELD_DEFINED=ISOCENTER
		REF_FIELD_INPLANE=100.00
		REF_FIELD_CROSSPLANE=100.00
		REF_SCAN_POSITIONS=-85.00;-84.00;-83.00;-82.00;-81.00;-80.00;-79.00;-78.00;-77.00;-76.00;-75.00;-74.00;-73.00;-72.00;-71.00;-70.00;-69.00;-68.00;-67.00;-66.00;-65.00;-64.00;-63.00;-62.00;-61.00;-60.00;-59.00;-58.00;-57.00;-56.00;-55.00;-54.00;-53.00;-52.00;-51.00;-50.00;-49.00;-48.00;-47.00;-46.00;-45.00;-44.00;-43.00;-42.00;-41.00;-40.00;-39.00;-38.00;-37.00;-36.00;-35.00;-34.00;-33.00;-32.00;-31.00;-30.00;-29.00;-28.00;-27.00;-26.00;-25.00;-24.00;-23.00;-22.00;-21.00;-20.00;-19.00;-18.00;-17.00;-16.00;-15.00;-14.00;-13.00;-12.00;-11.00;-10.00;-9.00;-8.00;-7.00;-6.00;-5.00;-4.00;-3.00;-2.00;-1.00;0.00;1.00;2.00;3.00;4.00;5.00;6.00;7.00;8.00;9.00;10.00;11.00;12.00;13.00;14.00;15.00;16.00;17.00;18.00;19.00;20.00;21.00;22.00;23.00;24.00;25.00;26.00;27.00;28.00;29.00;30.00;31.00;32.00;33.00;34.00;35.00;36.00;37.00;38.00;39.00;40.00;41.00;42.00;43.00;44.00;45.00;46.00;47.00;48.00;49.00;50.00;51.00;52.00;53.00;54.00;55.00;56.00;57.00;58.00;59.00;60.00;61.00;62.00;63.00;64.00;65.00;66.00;67.00;68.00;69.00;70.00;71.00;72.00;73.00;74.00;75.00;76.00;77.00;78.00;79.00;80.00;81.00;82.00;83.00;84.00;85.00;
		REF_OVERSCAN_FACTOR=1.00
		SCAN_CURVETYPE=CROSSPLANE_PROFILE
		SCAN_DEPTH=55.00
		SCAN_OFFAXIS_INPLANE=0.00
		SCAN_OFFAXIS_CROSSPLANE=0.00
		SCAN_ANGLE=0.00
		SCAN_DIAGONAL=NOT_DIAGONAL
		SCAN_DIRECTION=POSITIVE
		MEAS_MEDIUM=WATER
		MEAS_PRESET=MEAS_CONTINUOUS_REFERENCE_SCAN
		MEAS_TIME=0.100
		MEAS_UNIT=A.U.
		INCLINATION_ANGLE=0.00
		PRESSURE=1013.25
		TEMPERATURE=20.00
		NORM_TEMPERATURE=20.00
		CORRECTION_FACTOR=1.0000
		EXPECTED_MAX_DOSE_RATE=3.00
		EPOM_DEPTH_SHIFT=0.2
		EPOM_MODE=SHIFT_PROTOCOL
		CORRECTIONS=SMOOTHED_CORR;CAX_CORR;INTERPOLATED_CORR;SYMMETRY_CORR;
		BEGIN_DATA
			-160.50		17.045E+00
			-160.00		17.168E+00
			-159.50		17.310E+00
			-159.00		17.539E+00
			-158.50		17.767E+00
			-158.00		17.962E+00
			-157.50		18.155E+00
			-157.00		18.309E+00
			-156.50		18.460E+00
			-156.00		18.619E+00
			-155.50		18.782E+00
			-155.00		19.018E+00
			-154.50		19.304E+00
			-154.00		19.538E+00
			-153.50		19.714E+00
			-153.00		19.905E+00
			-152.50		20.127E+00
			-152.00		20.334E+00
			-151.50		20.464E+00
			-151.00		20.598E+00
			-150.50		20.854E+00
			-150.00		21.109E+00
			-149.50		21.321E+00
			-149.00		21.528E+00
			-148.50		21.809E+00
			-148.00		22.114E+00
			-147.50		22.368E+00
			-147.00		22.578E+00
			-146.50		22.824E+00
			-146.00		23.109E+00
			-145.50		23.396E+00
			-145.00		23.689E+00
			-144.50		23.986E+00
			-144.00		24.303E+00
			-143.50		24.620E+00
			-143.00		24.902E+00
			-142.50		25.185E+00
			-142.00		25.559E+00
			-141.50		25.944E+00
			-141.00		26.279E+00
			-140.50		26.598E+00
			-140.00		26.938E+00
			-139.50		27.292E+00
			-139.00		27.651E+00
			-138.50		28.015E+00
			-138.00		28.413E+00
			-137.50		28.874E+00
			-137.00		29.324E+00
			-136.50		29.702E+00
			-136.00		30.087E+00
			-135.50		30.707E+00
			-135.00		31.326E+00
			-134.50		31.792E+00
			-134.00		32.238E+00
			-133.50		32.768E+00
			-133.00		33.334E+00
			-132.50		33.932E+00
			-132.00		34.548E+00
			-131.50		35.232E+00
			-131.00		36.004E+00
			-130.50		36.764E+00
			-130.00		37.512E+00
			-129.50		38.302E+00
			-129.00		39.297E+00
			-128.50		40.306E+00
			-128.00		41.698E+00
			-127.50		43.090E+00
			-127.00		44.937E+00
			-126.50		46.854E+00
			-126.00		49.974E+00
			-125.50		53.479E+00
			-125.00		58.729E+00
			-124.50		65.109E+00
			-124.00		73.277E+00
			-123.50		83.346E+00
			-123.00		94.535E+00
			-122.50		107.94E+00
			-122.00		121.77E+00
			-121.50		137.34E+00
			-121.00		152.96E+00
			-120.50		169.86E+00
			-120.00		186.75E+00
			-119.50		202.40E+00
			-119.00		217.90E+00
			-118.50		232.38E+00
			-118.00		246.52E+00
			-117.50		258.82E+00
			-117.00		269.96E+00
			-116.50		279.36E+00
			-116.00		286.70E+00
			-115.50		293.13E+00
			-115.00		297.83E+00
			-114.50		302.17E+00
			-114.00		305.04E+00
			-113.50		307.86E+00
			-113.00		309.77E+00
			-112.50		311.67E+00
			-112.00		313.45E+00
			-111.50		315.20E+00
			-111.00		316.70E+00
			-110.50		318.13E+00
			-110.00		319.43E+00
			-109.50		320.68E+00
			-109.00		321.91E+00
			-108.50		323.13E+00
			-108.00		324.33E+00
			-107.50		325.46E+00
			-107.00		326.57E+00
			-106.50		327.60E+00
			-106.00		328.61E+00
			-105.50		329.54E+00
			-105.00		330.48E+00
			-104.50		331.42E+00
			-104.00		332.37E+00
			-103.50		333.40E+00
			-103.00		334.44E+00
			-102.50		335.48E+00
			-102.00		336.52E+00
			-101.50		337.54E+00
			-101.00		338.54E+00
			-100.50		339.48E+00
			-100.00		340.33E+00
			-99.50		341.17E+00
			-99.00		341.94E+00
			-98.50		342.73E+00
			-98.00		343.61E+00
			-97.50		344.50E+00
			-97.00		345.44E+00
			-96.50		346.38E+00
			-96.00		347.32E+00
			-95.50		348.27E+00
			-95.00		349.23E+00
			-94.50		350.20E+00
			-94.00		351.16E+00
			-93.50		352.11E+00
			-93.00		353.02E+00
			-92.50		353.90E+00
			-92.00		354.77E+00
			-91.50		355.67E+00
			-91.00		356.59E+00
			-90.50		357.55E+00
			-90.00		358.52E+00
			-89.50		359.46E+00
			-89.00		360.40E+00
			-88.50		361.26E+00
			-88.00		362.10E+00
			-87.50		362.92E+00
			-87.00		363.73E+00
			-86.50		364.62E+00
			-86.00		365.58E+00
			-85.50		366.49E+00
			-85.00		367.37E+00
			-84.50		368.22E+00
			-84.00		369.02E+00
			-83.50		369.81E+00
			-83.00		370.66E+00
			-82.50		371.52E+00
			-82.00		372.43E+00
			-81.50		373.34E+00
			-81.00		374.29E+00
			-80.50		375.23E+00
			-80.00		376.15E+00
			-79.50		377.04E+00
			-79.00		377.90E+00
			-78.50		378.76E+00
			-78.00		379.60E+00
			-77.50		380.44E+00
			-77.00		381.28E+00
			-76.50		382.11E+00
			-76.00		382.95E+00
			-75.50		383.88E+00
			-75.00		384.82E+00
			-74.50		385.71E+00
			-74.00		386.61E+00
			-73.50		387.45E+00
			-73.00		388.29E+00
			-72.50		389.27E+00
			-72.00		390.32E+00
			-71.50		391.38E+00
			-71.00		392.45E+00
			-70.50		393.45E+00
			-70.00		394.32E+00
			-69.50		395.17E+00
			-69.00		395.98E+00
			-68.50		396.78E+00
			-68.00		397.63E+00
			-67.50		398.48E+00
			-67.00		399.36E+00
			-66.50		400.23E+00
			-66.00		401.07E+00
			-65.50		401.90E+00
			-65.00		402.75E+00
			-64.50		403.60E+00
			-64.00		404.47E+00
			-63.50		405.33E+00
			-63.00		406.17E+00
			-62.50		406.98E+00
			-62.00		407.81E+00
			-61.50		408.70E+00
			-61.00		409.61E+00
			-60.50		410.58E+00
			-60.00		411.55E+00
			-59.50		412.48E+00
			-59.00		413.42E+00
			-58.50		414.30E+00
			-58.00		415.17E+00
			-57.50		416.03E+00
			-57.00		416.89E+00
			-56.50		417.75E+00
			-56.00		418.62E+00
			-55.50		419.48E+00
			-55.00		420.32E+00
			-54.50		421.17E+00
			-54.00		422.05E+00
			-53.50		422.96E+00
			-53.00		423.94E+00
			-52.50		424.92E+00
			-52.00		425.80E+00
			-51.50		426.68E+00
			-51.00		427.48E+00
			-50.50		428.26E+00
			-50.00		429.13E+00
			-49.50		430.05E+00
			-49.00		431.04E+00
			-48.50		432.06E+00
			-48.00		433.05E+00
			-47.50		433.97E+00
			-47.00		434.88E+00
			-46.50		435.73E+00
			-46.00		436.59E+00
			-45.50		437.42E+00
			-45.00		438.26E+00
			-44.50		439.01E+00
			-44.00		439.77E+00
			-43.50		440.54E+00
			-43.00		441.33E+00
			-42.50		442.17E+00
			-42.00		443.04E+00
			-41.50		443.90E+00
			-41.00		444.77E+00
			-40.50		445.61E+00
			-40.00		446.42E+00
			-39.50		447.21E+00
			-39.00		447.96E+00
			-38.50		448.68E+00
			-38.00		449.34E+00
			-37.50		449.98E+00
			-37.00		450.69E+00
			-36.50		451.40E+00
			-36.00		452.18E+00
			-35.50		452.98E+00
			-35.00		453.77E+00
			-34.50		454.57E+00
			-34.00		455.36E+00
			-33.50		456.16E+00
			-33.00		456.95E+00
			-32.50		457.73E+00
			-32.00		458.50E+00
			-31.50		459.23E+00
			-31.00		459.98E+00
			-30.50		460.78E+00
			-30.00		461.59E+00
			-29.50		462.32E+00
			-29.00		463.04E+00
			-28.50		463.68E+00
			-28.00		464.31E+00
			-27.50		465.00E+00
			-27.00		465.71E+00
			-26.50		466.40E+00
			-26.00		467.04E+00
			-25.50		467.64E+00
			-25.00		468.21E+00
			-24.50		468.79E+00
			-24.00		469.42E+00
			-23.50		470.05E+00
			-23.00		470.67E+00
			-22.50		471.30E+00
			-22.00		471.83E+00
			-21.50		472.35E+00
			-21.00		472.86E+00
			-20.50		473.37E+00
			-20.00		473.99E+00
			-19.50		474.67E+00
			-19.00		475.33E+00
			-18.50		475.97E+00
			-18.00		476.51E+00
			-17.50		476.89E+00
			-17.00		477.28E+00
			-16.50		477.72E+00
			-16.00		478.16E+00
			-15.50		478.64E+00
			-15.00		479.10E+00
			-14.50		479.36E+00
			-14.00		479.63E+00
			-13.50		479.90E+00
			-13.00		480.17E+00
			-12.50		480.56E+00
			-12.00		481.00E+00
			-11.50		481.45E+00
			-11.00		481.89E+00
			-10.50		482.30E+00
			-10.00		482.66E+00
			-9.50		482.99E+00
			-9.00		483.27E+00
			-8.50		483.53E+00
			-8.00		483.72E+00
			-7.50		483.91E+00
			-7.00		484.14E+00
			-6.50		484.37E+00
			-6.00		484.67E+00
			-5.50		484.97E+00
			-5.00		485.27E+00
			-4.50		485.59E+00
			-4.00		485.85E+00
			-3.50		486.08E+00
			-3.00		486.22E+00
			-2.50		486.26E+00
			-2.00		486.30E+00
			-1.50		486.38E+00
			-1.00		486.45E+00
			-0.50		486.54E+00
			0.00		486.64E+00
			0.50		486.54E+00
			1.00		486.45E+00
			1.50		486.38E+00
			2.00		486.30E+00
			2.50		486.26E+00
			3.00		486.22E+00
			3.50		486.08E+00
			4.00		485.85E+00
			4.50		485.59E+00
			5.00		485.27E+00
			5.50		484.97E+00
			6.00		484.67E+00
			6.50		484.37E+00
			7.00		484.14E+00
			7.50		483.91E+00
			8.00		483.72E+00
			8.50		483.53E+00
			9.00		483.27E+00
			9.50		482.99E+00
			10.00		482.66E+00
			10.50		482.30E+00
			11.00		481.89E+00
			11.50		481.45E+00
			12.00		481.00E+00
			12.50		480.56E+00
			13.00		480.17E+00
			13.50		479.90E+00
			14.00		479.63E+00
			14.50		479.36E+00
			15.00		479.10E+00
			15.50		478.64E+00
			16.00		478.16E+00
			16.50		477.72E+00
			17.00		477.28E+00
			17.50		476.89E+00
			18.00		476.51E+00
			18.50		475.97E+00
			19.00		475.33E+00
			19.50		474.67E+00
			20.00		473.99E+00
			20.50		473.37E+00
			21.00		472.86E+00
			21.50		472.35E+00
			22.00		471.83E+00
			22.50		471.30E+00
			23.00		470.67E+00
			23.50		470.05E+00
			24.00		469.42E+00
			24.50		468.79E+00
			25.00		468.21E+00
			25.50		467.64E+00
			26.00		467.04E+00
			26.50		466.40E+00
			27.00		465.71E+00
			27.50		465.00E+00
			28.00		464.31E+00
			28.50		463.68E+00
			29.00		463.04E+00
			29.50		462.32E+00
			30.00		461.59E+00
			30.50		460.78E+00
			31.00		459.98E+00
			31.50		459.23E+00
			32.00		458.50E+00
			32.50		457.73E+00
			33.00		456.95E+00
			33.50		456.16E+00
			34.00		455.36E+00
			34.50		454.57E+00
			35.00		453.77E+00
			35.50		452.98E+00
			36.00		452.18E+00
			36.50		451.40E+00
			37.00		450.69E+00
			37.50		449.98E+00
			38.00		449.34E+00
			38.50		448.68E+00
			39.00		447.96E+00
			39.50		447.21E+00
			40.00		446.42E+00
			40.50		445.61E+00
			41.00		444.77E+00
			41.50		443.90E+00
			42.00		443.04E+00
			42.50		442.17E+00
			43.00		441.33E+00
			43.50		440.54E+00
			44.00		439.77E+00
			44.50		439.01E+00
			45.00		438.26E+00
			45.50		437.42E+00
			46.00		436.59E+00
			46.50		435.73E+00
			47.00		434.88E+00
			47.50		433.97E+00
			48.00		433.05E+00
			48.50		432.06E+00
			49.00		431.04E+00
			49.50		430.05E+00
			50.00		429.13E+00
			50.50		428.26E+00
			51.00		427.48E+00
			51.50		426.68E+00
			52.00		425.80E+00
			52.50		424.92E+00
			53.00		423.94E+00
			53.50		422.96E+00
			54.00		422.05E+00
			54.50		421.17E+00
			55.00		420.32E+00
			55.50		419.48E+00
			56.00		418.62E+00
			56.50		417.75E+00
			57.00		416.89E+00
			57.50		416.03E+00
			58.00		415.17E+00
			58.50		414.30E+00
			59.00		413.42E+00
			59.50		412.48E+00
			60.00		411.55E+00
			60.50		410.58E+00
			61.00		409.61E+00
			61.50		408.70E+00
			62.00		407.81E+00
			62.50		406.98E+00
			63.00		406.17E+00
			63.50		405.33E+00
			64.00		404.47E+00
			64.50		403.60E+00
			65.00		402.75E+00
			65.50		401.90E+00
			66.00		401.07E+00
			66.50		400.23E+00
			67.00		399.36E+00
			67.50		398.48E+00
			68.00		397.63E+00
			68.50		396.78E+00
			69.00		395.98E+00
			69.50		395.17E+00
			70.00		394.32E+00
			70.50		393.45E+00
			71.00		392.45E+00
			71.50		391.38E+00
			72.00		390.32E+00
			72.50		389.27E+00
			73.00		388.29E+00
			73.50		387.45E+00
			74.00		386.61E+00
			74.50		385.71E+00
			75.00		384.82E+00
			75.50		383.88E+00
			76.00		382.95E+00
			76.50		382.11E+00
			77.00		381.28E+00
			77.50		380.44E+00
			78.00		379.60E+00
			78.50		378.76E+00
			79.00		377.90E+00
			79.50		377.04E+00
			80.00		376.15E+00
			80.50		375.23E+00
			81.00		374.29E+00
			81.50		373.34E+00
			82.00		372.43E+00
			82.50		371.52E+00
			83.00		370.66E+00
			83.50		369.81E+00
			84.00		369.02E+00
			84.50		368.22E+00
			85.00		367.37E+00
			85.50		366.49E+00
			86.00		365.58E+00
			86.50		364.62E+00
			87.00		363.73E+00
			87.50		362.92E+00
			88.00		362.10E+00
			88.50		361.26E+00
			89.00		360.40E+00
			89.50		359.46E+00
			90.00		358.52E+00
			90.50		357.55E+00
			91.00		356.59E+00
			91.50		355.67E+00
			92.00		354.77E+00
			92.50		353.90E+00
			93.00		353.02E+00
			93.50		352.11E+00
			94.00		351.16E+00
			94.50		350.20E+00
			95.00		349.23E+00
			95.50		348.27E+00
			96.00		347.32E+00
			96.50		346.38E+00
			97.00		345.44E+00
			97.50		344.50E+00
			98.00		343.61E+00
			98.50		342.73E+00
			99.00		341.94E+00
			99.50		341.17E+00
			100.00		340.33E+00
			100.50		339.48E+00
			101.00		338.54E+00
			101.50		337.54E+00
			102.00		336.52E+00
			102.50		335.48E+00
			103.00		334.44E+00
			103.50		333.40E+00
			104.00		332.37E+00
			104.50		331.42E+00
			105.00		330.48E+00
			105.50		329.54E+00
			106.00		328.61E+00
			106.50		327.60E+00
			107.00		326.57E+00
			107.50		325.46E+00
			108.00		324.33E+00
			108.50		323.13E+00
			109.00		321.91E+00
			109.50		320.68E+00
			110.00		319.43E+00
			110.50		318.13E+00
			111.00		316.70E+00
			111.50		315.20E+00
			112.00		313.45E+00
			112.50		311.67E+00
			113.00		309.77E+00
			113.50		307.86E+00
			114.00		305.04E+00
			114.50		302.17E+00
			115.00		297.83E+00
			115.50		293.13E+00
			116.00		286.70E+00
			116.50		279.36E+00
			117.00		269.96E+00
			117.50		258.82E+00
			118.00		246.52E+00
			118.50		232.38E+00
			119.00		217.90E+00
			119.50		202.40E+00
			120.00		186.75E+00
			120.50		169.86E+00
			121.00		152.96E+00
			121.50		137.34E+00
			122.00		121.77E+00
			122.50		107.94E+00
			123.00		94.535E+00
			123.50		83.346E+00
			124.00		73.277E+00
			124.50		65.109E+00
			125.00		58.729E+00
			125.50		53.479E+00
			126.00		49.974E+00
			126.50		46.854E+00
			127.00		44.937E+00
			127.50		43.090E+00
			128.00		41.698E+00
			128.50		40.306E+00
			129.00		39.297E+00
			129.50		38.302E+00
			130.00		37.512E+00
			130.50		36.764E+00
			131.00		36.004E+00
			131.50		35.232E+00
			132.00		34.548E+00
			132.50		33.932E+00
			133.00		33.334E+00
			133.50		32.768E+00
			134.00		32.238E+00
			134.50		31.792E+00
			135.00		31.326E+00
			135.50		30.707E+00
			136.00		30.087E+00
			136.50		29.702E+00
			137.00		29.324E+00
			137.50		28.874E+00
			138.00		28.413E+00
			138.50		28.015E+00
			139.00		27.651E+00
			139.50		27.292E+00
			140.00		26.938E+00
			140.50		26.598E+00
			141.00		26.279E+00
			141.50		25.944E+00
			142.00		25.559E+00
			142.50		25.185E+00
			143.00		24.902E+00
			143.50		24.620E+00
			144.00		24.303E+00
			144.50		23.986E+00
			145.00		23.689E+00
			145.50		23.396E+00
			146.00		23.109E+00
			146.50		22.824E+00
			147.00		22.578E+00
			147.50		22.368E+00
			148.00		22.114E+00
			148.50		21.809E+00
			149.00		21.528E+00
			149.50		21.321E+00
			150.00		21.109E+00
			150.50		20.854E+00
			151.00		20.598E+00
			151.50		20.464E+00
			152.00		20.334E+00
			152.50		20.127E+00
			153.00		19.905E+00
			153.50		19.714E+00
			154.00		19.538E+00
			154.50		19.304E+00
			155.00		19.018E+00
			155.50		18.782E+00
			156.00		18.619E+00
			156.50		18.460E+00
			157.00		18.309E+00
			157.50		18.155E+00
			158.00		17.962E+00
			158.50		17.767E+00
			159.00		17.539E+00
			159.50		17.310E+00
			160.00		17.168E+00
			160.50		17.045E+00
		END_DATA
	END_SCAN  1
	BEGIN_SCAN  2
		TASK_NAME=tba PDD Profiles
		PROGRAM=WaterTankScans
		COMMENT=FBF_SanPietro
		MEAS_DATE=08-Feb-2021 09:38:10
		LINAC=MRIdian
		MODALITY=X
		ISOCENTER=900.00
		INPLANE_AXIS=Y
		CROSSPLANE_AXIS=X
		DEPTH_AXIS=Depth
		INPLANE_AXIS_DIR=TARGET_GUN
		CROSSPLANE_AXIS_DIR=LEFT_RIGHT
		DEPTH_AXIS_DIR=UP_DOWN
		ENERGY=6.00
		NOMINAL_DMAX=15.00
		SSD=850.00
		SCD=450.00
		WEDGE_ANGLE=0.00
		FIELD_INPLANE=240.70
		FIELD_CROSSPLANE=240.70
		FIELD_TYPE=RECTANGULAR
		GANTRY=0.00
		GANTRY_UPRIGHT_POSITION=0
		GANTRY_ROTATION=CW
		COLL_ANGLE=0.00
		COLL_OFFSET_INPLANE=0.00
		COLL_OFFSET_CROSSPLANE=0.00
		SCAN_DEVICE=BeamScan
		SCAN_DEVICE_SETUP=BARA_LEFT_RIGHT
		ELECTROMETER=BeamScan
		RANGE_FIELD=LOW
		RANGE_REFERENCE=MEDIUM
		DETECTOR=THIMBLE_CHAMBER
		DETECTOR_RADIUS=2.40
		DETECTOR_NAME=A28MR
		DETECTOR_SN=-
		DETECTOR_CALIBRATION=588000000.00
		DETECTOR_IS_CALIBRATED=0
		DETECTOR_REFERENCE=THIMBLE_CHAMBER
		DETECTOR_REFERENCE_RADIUS=2.75
		DETECTOR_REFERENCE_NAME=A28MR
		DETECTOR_REFERENCE_SN=—
		DETECTOR_REFERENCE_IS_CALIBRATED=0
		DETECTOR_REFERENCE_CALIBRATION=303000000.00
		DETECTOR_HV=300.0
		DETECTOR_REFERENCE_HV=300.0
		DETECTOR_ORIENTATION=HORIZONTAL
		FILTER=FFF
		SCAN_SPEED_PROFILE=10.00
		SCAN_PROF_SPEED_DEP=DEPTH
		SCAN_SPEED_PDD=0.00
		SCAN_PDD_SPEED_DEP=ENERGY
		DETECTOR_TYPE=A28MR
		REF_FIELD_DEPTH=220.00
		REF_FIELD_DEFINED=ISOCENTER
		REF_FIELD_INPLANE=100.00
		REF_FIELD_CROSSPLANE=100.00
		REF_SCAN_POSITIONS=-85.00;-84.00;-83.00;-82.00;-81.00;-80.00;-79.00;-78.00;-77.00;-76.00;-75.00;-74.00;-73.00;-72.00;-71.00;-70.00;-69.00;-68.00;-67.00;-66.00;-65.00;-64.00;-63.00;-62.00;-61.00;-60.00;-59.00;-58.00;-57.00;-56.00;-55.00;-54.00;-53.00;-52.00;-51.00;-50.00;-49.00;-48.00;-47.00;-46.00;-45.00;-44.00;-43.00;-42.00;-41.00;-40.00;-39.00;-38.00;-37.00;-36.00;-35.00;-34.00;-33.00;-32.00;-31.00;-30.00;-29.00;-28.00;-27.00;-26.00;-25.00;-24.00;-23.00;-22.00;-21.00;-20.00;-19.00;-18.00;-17.00;-16.00;-15.00;-14.00;-13.00;-12.00;-11.00;-10.00;-9.00;-8.00;-7.00;-6.00;-5.00;-4.00;-3.00;-2.00;-1.00;0.00;1.00;2.00;3.00;4.00;5.00;6.00;7.00;8.00;9.00;10.00;11.00;12.00;13.00;14.00;15.00;16.00;17.00;18.00;19.00;20.00;21.00;22.00;23.00;24.00;25.00;26.00;27.00;28.00;29.00;30.00;31.00;32.00;33.00;34.00;35.00;36.00;37.00;38.00;39.00;40.00;41.00;42.00;43.00;44.00;45.00;46.00;47.00;48.00;49.00;50.00;51.00;52.00;53.00;54.00;55.00;56.00;57.00;58.00;59.00;60.00;61.00;62.00;63.00;64.00;65.00;66.00;67.00;68.00;69.00;70.00;71.00;72.00;73.00;74.00;75.00;76.00;77.00;78.00;79.00;80.00;81.00;82.00;83.00;84.00;85.00;
		REF_OVERSCAN_FACTOR=1.00
		SCAN_CURVETYPE=CROSSPLANE_PROFILE
		SCAN_DEPTH=100.00
		SCAN_OFFAXIS_INPLANE=0.00
		SCAN_OFFAXIS_CROSSPLANE=0.00
		SCAN_ANGLE=0.00
		SCAN_DIAGONAL=NOT_DIAGONAL
		SCAN_DIRECTION=POSITIVE
		MEAS_MEDIUM=WATER
		MEAS_PRESET=MEAS_CONTINUOUS_REFERENCE_SCAN
		MEAS_TIME=0.100
		MEAS_UNIT=A.U.
		INCLINATION_ANGLE=0.00
		PRESSURE=1013.25
		TEMPERATURE=20.00
		NORM_TEMPERATURE=20.00
		CORRECTION_FACTOR=1.0000
		EXPECTED_MAX_DOSE_RATE=3.00
		EPOM_DEPTH_SHIFT=0.2
		EPOM_MODE=SHIFT_PROTOCOL
		CORRECTIONS=SMOOTHED_CORR;CAX_CORR;INTERPOLATED_CORR;SYMMETRY_CORR;
		BEGIN_DATA
			-160.00		21.622E+00
			-159.50		21.874E+00
			-159.00		22.124E+00
			-158.50		22.407E+00
			-158.00		22.688E+00
			-157.50		22.785E+00
			-157.00		22.865E+00
			-156.50		23.134E+00
			-156.00		23.466E+00
			-155.50		23.758E+00
			-155.00		24.007E+00
			-154.50		24.285E+00
			-154.00		24.598E+00
			-153.50		24.880E+00
			-153.00		25.110E+00
			-152.50		25.381E+00
			-152.00		25.749E+00
			-151.50		26.101E+00
			-151.00		26.364E+00
			-150.50		26.630E+00
			-150.00		26.876E+00
			-149.50		27.117E+00
			-149.00		27.523E+00
			-148.50		27.965E+00
			-148.00		28.271E+00
			-147.50		28.526E+00
			-147.00		28.843E+00
			-146.50		29.200E+00
			-146.00		29.582E+00
			-145.50		29.999E+00
			-145.00		30.384E+00
			-144.50		30.686E+00
			-144.00		31.005E+00
			-143.50		31.430E+00
			-143.00		31.861E+00
			-142.50		32.259E+00
			-142.00		32.659E+00
			-141.50		33.196E+00
			-141.00		33.750E+00
			-140.50		34.235E+00
			-140.00		34.701E+00
			-139.50		35.241E+00
			-139.00		35.806E+00
			-138.50		36.340E+00
			-138.00		36.855E+00
			-137.50		37.405E+00
			-137.00		37.986E+00
			-136.50		38.593E+00
			-136.00		39.291E+00
			-135.50		40.013E+00
			-135.00		40.914E+00
			-134.50		41.818E+00
			-134.00		42.896E+00
			-133.50		43.982E+00
			-133.00		45.548E+00
			-132.50		47.200E+00
			-132.00		49.649E+00
			-131.50		52.407E+00
			-131.00		56.094E+00
			-130.50		60.536E+00
			-130.00		66.190E+00
			-129.50		73.348E+00
			-129.00		81.158E+00
			-128.50		90.426E+00
			-128.00		99.999E+00
			-127.50		110.99E+00
			-127.00		121.99E+00
			-126.50		133.38E+00
			-126.00		144.79E+00
			-125.50		156.08E+00
			-125.00		167.36E+00
			-124.50		177.67E+00
			-124.00		187.74E+00
			-123.50		196.63E+00
			-123.00		204.79E+00
			-122.50		211.62E+00
			-122.00		217.20E+00
			-121.50		222.02E+00
			-121.00		225.57E+00
			-120.50		228.85E+00
			-120.00		231.17E+00
			-119.50		233.42E+00
			-119.00		235.02E+00
			-118.50		236.62E+00
			-118.00		237.95E+00
			-117.50		239.26E+00
			-117.00		240.42E+00
			-116.50		241.56E+00
			-116.00		242.77E+00
			-115.50		243.99E+00
			-115.00		245.08E+00
			-114.50		246.10E+00
			-114.00		247.06E+00
			-113.50		247.96E+00
			-113.00		248.85E+00
			-112.50		249.71E+00
			-112.00		250.56E+00
			-111.50		251.43E+00
			-111.00		252.29E+00
			-110.50		253.16E+00
			-110.00		254.04E+00
			-109.50		254.85E+00
			-109.00		255.65E+00
			-108.50		256.42E+00
			-108.00		257.18E+00
			-107.50		257.97E+00
			-107.00		258.76E+00
			-106.50		259.56E+00
			-106.00		260.38E+00
			-105.50		261.17E+00
			-105.00		261.92E+00
			-104.50		262.67E+00
			-104.00		263.38E+00
			-103.50		264.10E+00
			-103.00		264.85E+00
			-102.50		265.60E+00
			-102.00		266.35E+00
			-101.50		267.10E+00
			-101.00		267.87E+00
			-100.50		268.66E+00
			-100.00		269.49E+00
			-99.50		270.36E+00
			-99.00		271.21E+00
			-98.50		272.05E+00
			-98.00		272.88E+00
			-97.50		273.65E+00
			-97.00		274.39E+00
			-96.50		275.11E+00
			-96.00		275.80E+00
			-95.50		276.46E+00
			-95.00		277.11E+00
			-94.50		277.77E+00
			-94.00		278.41E+00
			-93.50		279.12E+00
			-93.00		279.84E+00
			-92.50		280.59E+00
			-92.00		281.36E+00
			-91.50		282.10E+00
			-91.00		282.82E+00
			-90.50		283.52E+00
			-90.00		284.18E+00
			-89.50		284.86E+00
			-89.00		285.57E+00
			-88.50		286.28E+00
			-88.00		287.01E+00
			-87.50		287.73E+00
			-87.00		288.39E+00
			-86.50		289.04E+00
			-86.00		289.63E+00
			-85.50		290.21E+00
			-85.00		290.86E+00
			-84.50		291.54E+00
			-84.00		292.28E+00
			-83.50		293.04E+00
			-83.00		293.82E+00
			-82.50		294.59E+00
			-82.00		295.37E+00
			-81.50		296.19E+00
			-81.00		296.98E+00
			-80.50		297.67E+00
			-80.00		298.36E+00
			-79.50		298.93E+00
			-79.00		299.50E+00
			-78.50		300.20E+00
			-78.00		300.90E+00
			-77.50		301.67E+00
			-77.00		302.43E+00
			-76.50		303.15E+00
			-76.00		303.83E+00
			-75.50		304.46E+00
			-75.00		305.05E+00
			-74.50		305.67E+00
			-74.00		306.33E+00
			-73.50		307.04E+00
			-73.00		307.83E+00
			-72.50		308.60E+00
			-72.00		309.27E+00
			-71.50		309.92E+00
			-71.00		310.51E+00
			-70.50		311.09E+00
			-70.00		311.75E+00
			-69.50		312.43E+00
			-69.00		313.09E+00
			-68.50		313.74E+00
			-68.00		314.43E+00
			-67.50		315.13E+00
			-67.00		315.85E+00
			-66.50		316.58E+00
			-66.00		317.29E+00
			-65.50		317.92E+00
			-65.00		318.57E+00
			-64.50		319.24E+00
			-64.00		319.92E+00
			-63.50		320.66E+00
			-63.00		321.40E+00
			-62.50		322.15E+00
			-62.00		322.90E+00
			-61.50		323.63E+00
			-61.00		324.34E+00
			-60.50		324.95E+00
			-60.00		325.50E+00
			-59.50		326.06E+00
			-59.00		326.64E+00
			-58.50		327.29E+00
			-58.00		328.03E+00
			-57.50		328.77E+00
			-57.00		329.51E+00
			-56.50		330.23E+00
			-56.00		330.86E+00
			-55.50		331.51E+00
			-55.00		332.11E+00
			-54.50		332.70E+00
			-54.00		333.34E+00
			-53.50		333.99E+00
			-53.00		334.71E+00
			-52.50		335.46E+00
			-52.00		336.17E+00
			-51.50		336.86E+00
			-51.00		337.52E+00
			-50.50		338.13E+00
			-50.00		338.74E+00
			-49.50		339.37E+00
			-49.00		340.00E+00
			-48.50		340.66E+00
			-48.00		341.32E+00
			-47.50		341.96E+00
			-47.00		342.61E+00
			-46.50		343.20E+00
			-46.00		343.78E+00
			-45.50		344.34E+00
			-45.00		344.90E+00
			-44.50		345.48E+00
			-44.00		346.08E+00
			-43.50		346.68E+00
			-43.00		347.28E+00
			-42.50		347.86E+00
			-42.00		348.45E+00
			-41.50		349.04E+00
			-41.00		349.71E+00
			-40.50		350.38E+00
			-40.00		351.05E+00
			-39.50		351.73E+00
			-39.00		352.32E+00
			-38.50		352.90E+00
			-38.00		353.38E+00
			-37.50		353.84E+00
			-37.00		354.33E+00
			-36.50		354.80E+00
			-36.00		355.34E+00
			-35.50		355.92E+00
			-35.00		356.54E+00
			-34.50		357.21E+00
			-34.00		357.83E+00
			-33.50		358.36E+00
			-33.00		358.89E+00
			-32.50		359.31E+00
			-32.00		359.74E+00
			-31.50		360.38E+00
			-31.00		361.01E+00
			-30.50		361.71E+00
			-30.00		362.40E+00
			-29.50		362.95E+00
			-29.00		363.42E+00
			-28.50		363.85E+00
			-28.00		364.26E+00
			-27.50		364.70E+00
			-27.00		365.18E+00
			-26.50		365.67E+00
			-26.00		366.19E+00
			-25.50		366.72E+00
			-25.00		367.26E+00
			-24.50		367.78E+00
			-24.00		368.26E+00
			-23.50		368.72E+00
			-23.00		369.03E+00
			-22.50		369.33E+00
			-22.00		369.54E+00
			-21.50		369.72E+00
			-21.00		369.94E+00
			-20.50		370.18E+00
			-20.00		370.52E+00
			-19.50		370.93E+00
			-19.00		371.40E+00
			-18.50		371.94E+00
			-18.00		372.44E+00
			-17.50		372.90E+00
			-17.00		373.34E+00
			-16.50		373.68E+00
			-16.00		374.03E+00
			-15.50		374.33E+00
			-15.00		374.64E+00
			-14.50		374.89E+00
			-14.00		375.14E+00
			-13.50		375.42E+00
			-13.00		375.72E+00
			-12.50		376.02E+00
			-12.00		376.33E+00
			-11.50		376.55E+00
			-11.00		376.73E+00
			-10.50		376.89E+00
			-10.00		377.05E+00
			-9.50		377.23E+00
			-9.00		377.48E+00
			-8.50		377.73E+00
			-8.00		377.98E+00
			-7.50		378.23E+00
			-7.00		378.39E+00
			-6.50		378.53E+00
			-6.00		378.60E+00
			-5.50		378.64E+00
			-5.00		378.74E+00
			-4.50		378.87E+00
			-4.00		379.01E+00
			-3.50		379.17E+00
			-3.00		379.30E+00
			-2.50		379.41E+00
			-2.00		379.54E+00
			-1.50		379.67E+00
			-1.00		379.80E+00
			-0.50		379.86E+00
			0.00		379.93E+00
			0.50		379.86E+00
			1.00		379.80E+00
			1.50		379.67E+00
			2.00		379.54E+00
			2.50		379.41E+00
			3.00		379.30E+00
			3.50		379.17E+00
			4.00		379.01E+00
			4.50		378.87E+00
			5.00		378.74E+00
			5.50		378.64E+00
			6.00		378.60E+00
			6.50		378.53E+00
			7.00		378.39E+00
			7.50		378.23E+00
			8.00		377.98E+00
			8.50		377.73E+00
			9.00		377.48E+00
			9.50		377.23E+00
			10.00		377.05E+00
			10.50		376.89E+00
			11.00		376.73E+00
			11.50		376.55E+00
			12.00		376.33E+00
			12.50		376.02E+00
			13.00		375.72E+00
			13.50		375.42E+00
			14.00		375.14E+00
			14.50		374.89E+00
			15.00		374.64E+00
			15.50		374.33E+00
			16.00		374.03E+00
			16.50		373.68E+00
			17.00		373.34E+00
			17.50		372.90E+00
			18.00		372.44E+00
			18.50		371.94E+00
			19.00		371.40E+00
			19.50		370.93E+00
			20.00		370.52E+00
			20.50		370.18E+00
			21.00		369.94E+00
			21.50		369.72E+00
			22.00		369.54E+00
			22.50		369.33E+00
			23.00		369.03E+00
			23.50		368.72E+00
			24.00		368.26E+00
			24.50		367.78E+00
			25.00		367.26E+00
			25.50		366.72E+00
			26.00		366.19E+00
			26.50		365.67E+00
			27.00		365.18E+00
			27.50		364.70E+00
			28.00		364.26E+00
			28.50		363.85E+00
			29.00		363.42E+00
			29.50		362.95E+00
			30.00		362.40E+00
			30.50		361.71E+00
			31.00		361.01E+00
			31.50		360.38E+00
			32.00		359.74E+00
			32.50		359.31E+00
			33.00		358.89E+00
			33.50		358.36E+00
			34.00		357.83E+00
			34.50		357.21E+00
			35.00		356.54E+00
			35.50		355.92E+00
			36.00		355.34E+00
			36.50		354.80E+00
			37.00		354.33E+00
			37.50		353.84E+00
			38.00		353.38E+00
			38.50		352.90E+00
			39.00		352.32E+00
			39.50		351.73E+00
			40.00		351.05E+00
			40.50		350.38E+00
			41.00		349.71E+00
			41.50		349.04E+00
			42.00		348.45E+00
			42.50		347.86E+00
			43.00		347.28E+00
			43.50		346.68E+00
			44.00		346.08E+00
			44.50		345.48E+00
			45.00		344.90E+00
			45.50		344.34E+00
			46.00		343.78E+00
			46.50		343.20E+00
			47.00		342.61E+00
			47.50		341.96E+00
			48.00		341.32E+00
			48.50		340.66E+00
			49.00		340.00E+00
			49.50		339.37E+00
			50.00		338.74E+00
			50.50		338.13E+00
			51.00		337.52E+00
			51.50		336.86E+00
			52.00		336.17E+00
			52.50		335.46E+00
			53.00		334.71E+00
			53.50		333.99E+00
			54.00		333.34E+00
			54.50		332.70E+00
			55.00		332.11E+00
			55.50		331.51E+00
			56.00		330.86E+00
			56.50		330.23E+00
