BEGIN_SCAN_DATA
	FORMAT=CC-Export V1.9                  
	FILE_CREATION_DATE=11-Mar-2022 17:44:26
	LAST_MODIFIED=11-Mar-2022 17:44:26
	BEGIN_SCAN  1
		TASK_NAME=tba PDD Profiles
		PROGRAM=WaterTankScans
		COMMENT=Gemelli
		MEAS_DATE=08-Feb-2021 09:38:10
		LINAC=MRIdian
		MODALITY=X
		ISOCENTER=900.00
		INPLANE_AXIS=Y
		CROSSPLANE_AXIS=X
		DEPTH_AXIS=Depth
		INPLANE_AXIS_DIR=TARGET_GUN
		CROSSPLANE_AXIS_DIR=LEFT_RIGHT
		DEPTH_AXIS_DIR=UP_DOWN
		ENERGY=6.00
		NOMINAL_DMAX=15.00
		SSD=850.00
		SCD=450.00
		WEDGE_ANGLE=0.00
		FIELD_INPLANE=240.70
		FIELD_CROSSPLANE=240.70
		FIELD_TYPE=RECTANGULAR
		GANTRY=0.00
		GANTRY_UPRIGHT_POSITION=0
		GANTRY_ROTATION=CW
		COLL_ANGLE=0.00
		COLL_OFFSET_INPLANE=0.00
		COLL_OFFSET_CROSSPLANE=0.00
		SCAN_DEVICE=BeamScan
		SCAN_DEVICE_SETUP=BARA_LEFT_RIGHT
		ELECTROMETER=BeamScan
		RANGE_FIELD=LOW
		RANGE_REFERENCE=MEDIUM
		DETECTOR=THIMBLE_CHAMBER
		DETECTOR_RADIUS=2.40
		DETECTOR_NAME=A28MR
		DETECTOR_SN=-
		DETECTOR_CALIBRATION=588000000.00
		DETECTOR_IS_CALIBRATED=0
		DETECTOR_REFERENCE=THIMBLE_CHAMBER
		DETECTOR_REFERENCE_RADIUS=2.75
		DETECTOR_REFERENCE_NAME=A28MR
		DETECTOR_REFERENCE_SN=—
		DETECTOR_REFERENCE_IS_CALIBRATED=0
		DETECTOR_REFERENCE_CALIBRATION=303000000.00
		DETECTOR_HV=300.0
		DETECTOR_REFERENCE_HV=300.0
		DETECTOR_ORIENTATION=HORIZONTAL
		FILTER=FFF
		SCAN_SPEED_PROFILE=10.00
		SCAN_PROF_SPEED_DEP=DEPTH
		SCAN_SPEED_PDD=0.00
		SCAN_PDD_SPEED_DEP=ENERGY
		DETECTOR_TYPE=A28MR
		REF_FIELD_DEPTH=220.00
		REF_FIELD_DEFINED=ISOCENTER
		REF_FIELD_INPLANE=100.00
		REF_FIELD_CROSSPLANE=100.00
		REF_SCAN_POSITIONS=-85.00;-84.00;-83.00;-82.00;-81.00;-80.00;-79.00;-78.00;-77.00;-76.00;-75.00;-74.00;-73.00;-72.00;-71.00;-70.00;-69.00;-68.00;-67.00;-66.00;-65.00;-64.00;-63.00;-62.00;-61.00;-60.00;-59.00;-58.00;-57.00;-56.00;-55.00;-54.00;-53.00;-52.00;-51.00;-50.00;-49.00;-48.00;-47.00;-46.00;-45.00;-44.00;-43.00;-42.00;-41.00;-40.00;-39.00;-38.00;-37.00;-36.00;-35.00;-34.00;-33.00;-32.00;-31.00;-30.00;-29.00;-28.00;-27.00;-26.00;-25.00;-24.00;-23.00;-22.00;-21.00;-20.00;-19.00;-18.00;-17.00;-16.00;-15.00;-14.00;-13.00;-12.00;-11.00;-10.00;-9.00;-8.00;-7.00;-6.00;-5.00;-4.00;-3.00;-2.00;-1.00;0.00;1.00;2.00;3.00;4.00;5.00;6.00;7.00;8.00;9.00;10.00;11.00;12.00;13.00;14.00;15.00;16.00;17.00;18.00;19.00;20.00;21.00;22.00;23.00;24.00;25.00;26.00;27.00;28.00;29.00;30.00;31.00;32.00;33.00;34.00;35.00;36.00;37.00;38.00;39.00;40.00;41.00;42.00;43.00;44.00;45.00;46.00;47.00;48.00;49.00;50.00;51.00;52.00;53.00;54.00;55.00;56.00;57.00;58.00;59.00;60.00;61.00;62.00;63.00;64.00;65.00;66.00;67.00;68.00;69.00;70.00;71.00;72.00;73.00;74.00;75.00;76.00;77.00;78.00;79.00;80.00;81.00;82.00;83.00;84.00;85.00;
		REF_OVERSCAN_FACTOR=1.00
		SCAN_CURVETYPE=CROSSPLANE_PROFILE
		SCAN_DEPTH=20.00
		SCAN_OFFAXIS_INPLANE=0.00
		SCAN_OFFAXIS_CROSSPLANE=0.00
		SCAN_ANGLE=0.00
		SCAN_DIAGONAL=NOT_DIAGONAL
		SCAN_DIRECTION=POSITIVE
		MEAS_MEDIUM=WATER
		MEAS_PRESET=MEAS_CONTINUOUS_REFERENCE_SCAN
		MEAS_TIME=0.100
		MEAS_UNIT=A.U.
		INCLINATION_ANGLE=0.00
		PRESSURE=1013.25
		TEMPERATURE=20.00
		NORM_TEMPERATURE=20.00
		CORRECTION_FACTOR=1.0000
		EXPECTED_MAX_DOSE_RATE=3.00
		EPOM_DEPTH_SHIFT=0.2
		EPOM_MODE=SHIFT_PROTOCOL
		CORRECTIONS=SMOOTHED_CORR;CAX_CORR;INTERPOLATED_CORR;SYMMETRY_CORR;
		BEGIN_DATA
			-170.00		9.3918E+00
			-169.50		9.4513E+00
			-169.00		9.5119E+00
			-168.50		9.5563E+00
			-168.00		9.6007E+00
			-167.50		9.6609E+00
			-167.00		9.7211E+00
			-166.50		9.7766E+00
			-166.00		9.8331E+00
			-165.50		9.9471E+00
			-165.00		10.061E+00
			-164.50		10.145E+00
			-164.00		10.230E+00
			-163.50		10.325E+00
			-163.00		10.420E+00
			-162.50		10.504E+00
			-162.00		10.590E+00
			-161.50		10.664E+00
			-161.00		10.736E+00
			-160.50		10.832E+00
			-160.00		10.928E+00
			-159.50		11.043E+00
			-159.00		11.160E+00
			-158.50		11.242E+00
			-158.00		11.324E+00
			-157.50		11.448E+00
			-157.00		11.571E+00
			-156.50		11.684E+00
			-156.00		11.797E+00
			-155.50		11.851E+00
			-155.00		11.908E+00
			-154.50		12.047E+00
			-154.00		12.186E+00
			-153.50		12.294E+00
			-153.00		12.402E+00
			-152.50		12.497E+00
			-152.00		12.594E+00
			-151.50		12.728E+00
			-151.00		12.864E+00
			-150.50		12.999E+00
			-150.00		13.132E+00
			-149.50		13.208E+00
			-149.00		13.283E+00
			-148.50		13.409E+00
			-148.00		13.536E+00
			-147.50		13.680E+00
			-147.00		13.825E+00
			-146.50		13.986E+00
			-146.00		14.146E+00
			-145.50		14.284E+00
			-145.00		14.419E+00
			-144.50		14.588E+00
			-144.00		14.758E+00
			-143.50		14.936E+00
			-143.00		15.111E+00
			-142.50		15.285E+00
			-142.00		15.459E+00
			-141.50		15.668E+00
			-141.00		15.877E+00
			-140.50		16.021E+00
			-140.00		16.161E+00
			-139.50		16.297E+00
			-139.00		16.432E+00
			-138.50		16.640E+00
			-138.00		16.850E+00
			-137.50		17.104E+00
			-137.00		17.358E+00
			-136.50		17.602E+00
			-136.00		17.848E+00
			-135.50		18.090E+00
			-135.00		18.333E+00
			-134.50		18.566E+00
			-134.00		18.801E+00
			-133.50		19.105E+00
			-133.00		19.410E+00
			-132.50		19.661E+00
			-132.00		19.914E+00
			-131.50		20.286E+00
			-131.00		20.660E+00
			-130.50		20.990E+00
			-130.00		21.320E+00
			-129.50		21.765E+00
			-129.00		22.212E+00
			-128.50		22.634E+00
			-128.00		23.059E+00
			-127.50		23.604E+00
			-127.00		24.149E+00
			-126.50		24.709E+00
			-126.00		25.272E+00
			-125.50		26.057E+00
			-125.00		26.849E+00
			-124.50		27.793E+00
			-124.00		28.738E+00
			-123.50		30.170E+00
			-123.00		31.618E+00
			-122.50		33.717E+00
			-122.00		35.845E+00
			-121.50		39.537E+00
			-121.00		43.247E+00
			-120.50		49.906E+00
			-120.00		56.633E+00
			-119.50		67.354E+00
			-119.00		78.141E+00
			-118.50		91.900E+00
			-118.00		105.66E+00
			-117.50		121.65E+00
			-117.00		137.66E+00
			-116.50		154.36E+00
			-116.00		171.07E+00
			-115.50		187.49E+00
			-115.00		203.79E+00
			-114.50		217.76E+00
			-114.00		231.73E+00
			-113.50		242.59E+00
			-113.00		253.43E+00
			-112.50		260.67E+00
			-112.00		267.90E+00
			-111.50		272.12E+00
			-111.00		276.34E+00
			-110.50		278.91E+00
			-110.00		281.46E+00
			-109.50		283.69E+00
			-109.00		285.92E+00
			-108.50		287.77E+00
			-108.00		289.63E+00
			-107.50		290.81E+00
			-107.00		291.99E+00
			-106.50		293.18E+00
			-106.00		294.39E+00
			-105.50		295.54E+00
			-105.00		296.68E+00
			-104.50		297.32E+00
			-104.00		297.96E+00
			-103.50		299.08E+00
			-103.00		300.22E+00
			-102.50		300.98E+00
			-102.00		301.74E+00
			-101.50		302.56E+00
			-101.00		303.37E+00
			-100.50		304.15E+00
			-100.00		304.92E+00
			-99.50		305.65E+00
			-99.00		306.38E+00
			-98.50		307.18E+00
			-98.00		307.99E+00
			-97.50		308.83E+00
			-97.00		309.67E+00
			-96.50		310.41E+00
			-96.00		311.17E+00
			-95.50		312.01E+00
			-95.00		312.83E+00
			-94.50		313.77E+00
			-94.00		314.70E+00
			-93.50		315.55E+00
			-93.00		316.40E+00
			-92.50		317.18E+00
			-92.00		317.97E+00
			-91.50		318.84E+00
			-91.00		319.70E+00
			-90.50		320.55E+00
			-90.00		321.41E+00
			-89.50		322.16E+00
			-89.00		322.90E+00
			-88.50		323.66E+00
			-88.00		324.42E+00
			-87.50		325.26E+00
			-87.00		326.08E+00
			-86.50		326.90E+00
			-86.00		327.73E+00
			-85.50		328.54E+00
			-85.00		329.36E+00
			-84.50		330.16E+00
			-84.00		330.96E+00
			-83.50		331.76E+00
			-83.00		332.57E+00
			-82.50		333.45E+00
			-82.00		334.33E+00
			-81.50		335.19E+00
			-81.00		336.05E+00
			-80.50		336.87E+00
			-80.00		337.68E+00
			-79.50		338.55E+00
			-79.00		339.41E+00
			-78.50		340.36E+00
			-78.00		341.30E+00
			-77.50		342.20E+00
			-77.00		343.09E+00
			-76.50		343.92E+00
			-76.00		344.73E+00
			-75.50		345.59E+00
			-75.00		346.44E+00
			-74.50		347.34E+00
			-74.00		348.23E+00
			-73.50		349.09E+00
			-73.00		349.96E+00
			-72.50		350.80E+00
			-72.00		351.64E+00
			-71.50		352.55E+00
			-71.00		353.46E+00
			-70.50		354.42E+00
			-70.00		355.39E+00
			-69.50		356.32E+00
			-69.00		357.23E+00
			-68.50		357.97E+00
			-68.00		358.73E+00
			-67.50		359.44E+00
			-67.00		360.15E+00
			-66.50		360.98E+00
			-66.00		361.82E+00
			-65.50		362.67E+00
			-65.00		363.53E+00
			-64.50		364.43E+00
			-64.00		365.34E+00
			-63.50		366.29E+00
			-63.00		367.23E+00
			-62.50		368.10E+00
			-62.00		368.96E+00
			-61.50		369.76E+00
			-61.00		370.56E+00
			-60.50		371.37E+00
			-60.00		372.17E+00
			-59.50		372.96E+00
			-59.00		373.72E+00
			-58.50		374.51E+00
			-58.00		375.29E+00
			-57.50		376.15E+00
			-57.00		377.02E+00
			-56.50		377.85E+00
			-56.00		378.69E+00
			-55.50		379.51E+00
			-55.00		380.32E+00
			-54.50		381.14E+00
			-54.00		381.95E+00
			-53.50		382.79E+00
			-53.00		383.64E+00
			-52.50		384.60E+00
			-52.00		385.57E+00
			-51.50		386.52E+00
			-51.00		387.45E+00
			-50.50		388.22E+00
			-50.00		389.00E+00
			-49.50		389.81E+00
			-49.00		390.62E+00
			-48.50		391.54E+00
			-48.00		392.46E+00
			-47.50		393.36E+00
			-47.00		394.24E+00
			-46.50		395.05E+00
			-46.00		395.85E+00
			-45.50		396.64E+00
			-45.00		397.44E+00
			-44.50		398.38E+00
			-44.00		399.31E+00
			-43.50		400.27E+00
			-43.00		401.22E+00
			-42.50		402.07E+00
			-42.00		402.92E+00
			-41.50		403.68E+00
			-41.00		404.45E+00
			-40.50		405.13E+00
			-40.00		405.82E+00
			-39.50		406.49E+00
			-39.00		407.18E+00
			-38.50		407.98E+00
			-38.00		408.78E+00
			-37.50		409.65E+00
			-37.00		410.52E+00
			-36.50		411.33E+00
			-36.00		412.13E+00
			-35.50		412.86E+00
			-35.00		413.60E+00
			-34.50		414.29E+00
			-34.00		414.99E+00
			-33.50		415.63E+00
			-33.00		416.26E+00
			-32.50		416.87E+00
			-32.00		417.48E+00
			-31.50		418.12E+00
			-31.00		418.77E+00
			-30.50		419.52E+00
			-30.00		420.28E+00
			-29.50		421.05E+00
			-29.00		421.81E+00
			-28.50		422.40E+00
			-28.00		422.97E+00
			-27.50		423.52E+00
			-27.00		424.06E+00
			-26.50		424.69E+00
			-26.00		425.32E+00
			-25.50		425.90E+00
			-25.00		426.47E+00
			-24.50		427.04E+00
			-24.00		427.60E+00
			-23.50		428.21E+00
			-23.00		428.82E+00
			-22.50		429.38E+00
			-22.00		429.93E+00
			-21.50		430.38E+00
			-21.00		430.82E+00
			-20.50		431.32E+00
			-20.00		431.83E+00
			-19.50		432.40E+00
			-19.00		432.98E+00
			-18.50		433.43E+00
			-18.00		433.88E+00
			-17.50		434.18E+00
			-17.00		434.47E+00
			-16.50		434.85E+00
			-16.00		435.23E+00
			-15.50		435.69E+00
			-15.00		436.14E+00
			-14.50		436.43E+00
			-14.00		436.71E+00
			-13.50		437.00E+00
			-13.00		437.29E+00
			-12.50		437.64E+00
			-12.00		437.99E+00
			-11.50		438.23E+00
			-11.00		438.46E+00
			-10.50		438.70E+00
			-10.00		438.94E+00
			-9.50		439.20E+00
			-9.00		439.46E+00
			-8.50		439.63E+00
			-8.00		439.79E+00
			-7.50		439.98E+00
			-7.00		440.17E+00
			-6.50		440.38E+00
			-6.00		440.58E+00
			-5.50		440.70E+00
			-5.00		440.83E+00
			-4.50		440.95E+00
			-4.00		441.07E+00
			-3.50		441.11E+00
			-3.00		441.15E+00
			-2.50		441.13E+00
			-2.00		441.11E+00
			-1.50		441.11E+00
			-1.00		441.12E+00
			-0.50		441.12E+00
			0.00		441.11E+00
			0.50		441.12E+00
			1.00		441.12E+00
			1.50		441.11E+00
			2.00		441.11E+00
			2.50		441.13E+00
			3.00		441.15E+00
			3.50		441.11E+00
			4.00		441.07E+00
			4.50		440.95E+00
			5.00		440.83E+00
			5.50		440.70E+00
			6.00		440.58E+00
			6.50		440.38E+00
			7.00		440.17E+00
			7.50		439.98E+00
			8.00		439.79E+00
			8.50		439.63E+00
			9.00		439.46E+00
			9.50		439.20E+00
			10.00		438.94E+00
			10.50		438.70E+00
			11.00		438.46E+00
			11.50		438.23E+00
			12.00		437.99E+00
			12.50		437.64E+00
			13.00		437.29E+00
			13.50		437.00E+00
			14.00		436.71E+00
			14.50		436.43E+00
			15.00		436.14E+00
			15.50		435.69E+00
			16.00		435.23E+00
			16.50		434.85E+00
			17.00		434.47E+00
			17.50		434.18E+00
			18.00		433.88E+00
			18.50		433.43E+00
			19.00		432.98E+00
			19.50		432.40E+00
			20.00		431.83E+00
			20.50		431.32E+00
			21.00		430.82E+00
			21.50		430.38E+00
			22.00		429.93E+00
			22.50		429.38E+00
			23.00		428.82E+00
			23.50		428.21E+00
			24.00		427.60E+00
			24.50		427.04E+00
			25.00		426.47E+00
			25.50		425.90E+00
			26.00		425.32E+00
			26.50		424.69E+00
			27.00		424.06E+00
			27.50		423.52E+00
			28.00		422.97E+00
			28.50		422.40E+00
			29.00		421.81E+00
			29.50		421.05E+00
			30.00		420.28E+00
			30.50		419.52E+00
			31.00		418.77E+00
			31.50		418.12E+00
			32.00		417.48E+00
			32.50		416.87E+00
			33.00		416.26E+00
			33.50		415.63E+00
			34.00		414.99E+00
			34.50		414.29E+00
			35.00		413.60E+00
			35.50		412.86E+00
			36.00		412.13E+00
			36.50		411.33E+00
			37.00		410.52E+00
			37.50		409.65E+00
			38.00		408.78E+00
			38.50		407.98E+00
			39.00		407.18E+00
			39.50		406.49E+00
			40.00		405.82E+00
			40.50		405.13E+00
			41.00		404.45E+00
			41.50		403.68E+00
			42.00		402.92E+00
			42.50		402.07E+00
			43.00		401.22E+00
			43.50		400.27E+00
			44.00		399.31E+00
			44.50		398.38E+00
			45.00		397.44E+00
			45.50		396.64E+00
			46.00		395.85E+00
			46.50		395.05E+00
			47.00		394.24E+00
			47.50		393.36E+00
			48.00		392.46E+00
			48.50		391.54E+00
			49.00		390.62E+00
			49.50		389.81E+00
			50.00		389.00E+00
			50.50		388.22E+00
			51.00		387.45E+00
			51.50		386.52E+00
			52.00		385.57E+00
			52.50		384.60E+00
			53.00		383.64E+00
			53.50		382.79E+00
			54.00		381.95E+00
			54.50		381.14E+00
			55.00		380.32E+00
			55.50		379.51E+00
			56.00		378.69E+00
			56.50		377.85E+00
			57.00		377.02E+00
			57.50		376.15E+00
			58.00		375.29E+00
			58.50		374.51E+00
			59.00		373.72E+00
			59.50		372.96E+00
			60.00		372.17E+00
			60.50		371.37E+00
			61.00		370.56E+00
			61.50		369.76E+00
			62.00		368.96E+00
			62.50		368.10E+00
			63.00		367.23E+00
			63.50		366.29E+00
			64.00		365.34E+00
			64.50		364.43E+00
			65.00		363.53E+00
			65.50		362.67E+00
			66.00		361.82E+00
			66.50		360.98E+00
			67.00		360.15E+00
			67.50		359.44E+00
			68.00		358.73E+00
			68.50		357.97E+00
			69.00		357.23E+00
			69.50		356.32E+00
			70.00		355.39E+00
			70.50		354.42E+00
			71.00		353.46E+00
			71.50		352.55E+00
			72.00		351.64E+00
			72.50		350.80E+00
			73.00		349.96E+00
			73.50		349.09E+00
			74.00		348.23E+00
			74.50		347.34E+00
			75.00		346.44E+00
			75.50		345.59E+00
			76.00		344.73E+00
			76.50		343.92E+00
			77.00		343.09E+00
			77.50		342.20E+00
			78.00		341.30E+00
			78.50		340.36E+00
			79.00		339.41E+00
			79.50		338.55E+00
			80.00		337.68E+00
			80.50		336.87E+00
			81.00		336.05E+00
			81.50		335.19E+00
			82.00		334.33E+00
			82.50		333.45E+00
			83.00		332.57E+00
			83.50		331.76E+00
			84.00		330.96E+00
			84.50		330.16E+00
			85.00		329.36E+00
			85.50		328.54E+00
			86.00		327.73E+00
			86.50		326.90E+00
			87.00		326.08E+00
			87.50		325.26E+00
			88.00		324.42E+00
			88.50		323.66E+00
			89.00		322.90E+00
			89.50		322.16E+00
			90.00		321.41E+00
			90.50		320.55E+00
			91.00		319.70E+00
			91.50		318.84E+00
			92.00		317.97E+00
			92.50		317.18E+00
			93.00		316.40E+00
			93.50		315.55E+00
			94.00		314.70E+00
			94.50		313.77E+00
			95.00		312.83E+00
			95.50		312.01E+00
			96.00		311.17E+00
			96.50		310.41E+00
			97.00		309.67E+00
			97.50		308.83E+00
			98.00		307.99E+00
			98.50		307.18E+00
			99.00		306.38E+00
			99.50		305.65E+00
			100.00		304.92E+00
			100.50		304.15E+00
			101.00		303.37E+00
			101.50		302.56E+00
			102.00		301.74E+00
			102.50		300.98E+00
			103.00		300.22E+00
			103.50		299.08E+00
			104.00		297.96E+00
			104.50		297.32E+00
			105.00		296.68E+00
			105.50		295.54E+00
			106.00		294.39E+00
			106.50		293.18E+00
			107.00		291.99E+00
			107.50		290.81E+00
			108.00		289.63E+00
			108.50		287.77E+00
			109.00		285.92E+00
			109.50		283.69E+00
			110.00		281.46E+00
			110.50		278.91E+00
			111.00		276.34E+00
			111.50		272.12E+00
			112.00		267.90E+00
			112.50		260.67E+00
			113.00		253.43E+00
			113.50		242.59E+00
			114.00		231.73E+00
			114.50		217.76E+00
			115.00		203.79E+00
			115.50		187.49E+00
			116.00		171.07E+00
			116.50		154.36E+00
			117.00		137.66E+00
			117.50		121.65E+00
			118.00		105.66E+00
			118.50		91.900E+00
			119.00		78.141E+00
			119.50		67.354E+00
			120.00		56.633E+00
			120.50		49.906E+00
			121.00		43.247E+00
			121.50		39.537E+00
			122.00		35.845E+00
			122.50		33.717E+00
			123.00		31.618E+00
			123.50		30.170E+00
			124.00		28.738E+00
			124.50		27.793E+00
			125.00		26.849E+00
			125.50		26.057E+00
			126.00		25.272E+00
			126.50		24.709E+00
			127.00		24.149E+00
			127.50		23.604E+00
			128.00		23.059E+00
			128.50		22.634E+00
			129.00		22.212E+00
			129.50		21.765E+00
			130.00		21.320E+00
			130.50		20.990E+00
			131.00		20.660E+00
			131.50		20.286E+00
			132.00		19.914E+00
			132.50		19.661E+00
			133.00		19.410E+00
			133.50		19.105E+00
			134.00		18.801E+00
			134.50		18.566E+00
			135.00		18.333E+00
			135.50		18.090E+00
			136.00		17.848E+00
			136.50		17.602E+00
			137.00		17.358E+00
			137.50		17.104E+00
			138.00		16.850E+00
			138.50		16.640E+00
			139.00		16.432E+00
			139.50		16.297E+00
			140.00		16.161E+00
			140.50		16.021E+00
			141.00		15.877E+00
			141.50		15.668E+00
			142.00		15.459E+00
			142.50		15.285E+00
			143.00		15.111E+00
			143.50		14.936E+00
			144.00		14.758E+00
			144.50		14.588E+00
			145.00		14.419E+00
			145.50		14.284E+00
			146.00		14.146E+00
			146.50		13.986E+00
			147.00		13.825E+00
			147.50		13.680E+00
			148.00		13.536E+00
			148.50		13.409E+00
			149.00		13.283E+00
			149.50		13.208E+00
			150.00		13.132E+00
			150.50		12.999E+00
			151.00		12.864E+00
			151.50		12.728E+00
			152.00		12.594E+00
			152.50		12.497E+00
			153.00		12.402E+00
			153.50		12.294E+00
			154.00		12.186E+00
			154.50		12.047E+00
			155.00		11.908E+00
			155.50		11.851E+00
			156.00		11.797E+00
			156.50		11.684E+00
			157.00		11.571E+00
			157.50		11.448E+00
			158.00		11.324E+00
			158.50		11.242E+00
			159.00		11.160E+00
			159.50		11.043E+00
			160.00		10.928E+00
			160.50		10.832E+00
			161.00		10.736E+00
			161.50		10.664E+00
			162.00		10.590E+00
			162.50		10.504E+00
			163.00		10.420E+00
			163.50		10.325E+00
			164.00		10.230E+00
			164.50		10.145E+00
			165.00		10.061E+00
			165.50		9.9471E+00
			166.00		9.8331E+00
			166.50		9.7766E+00
			167.00		9.7211E+00
			167.50		9.6609E+00
			168.00		9.6007E+00
			168.50		9.5563E+00
			169.00		9.5119E+00
			169.50		9.4513E+00
			170.00		9.3918E+00
		END_DATA
	END_SCAN  1
	BEGIN_SCAN  2
		TASK_NAME=tba PDD Profiles
		PROGRAM=WaterTankScans
		COMMENT=Gemelli
		MEAS_DATE=08-Feb-2021 09:38:10
		LINAC=MRIdian
		MODALITY=X
		ISOCENTER=900.00
		INPLANE_AXIS=Y
		CROSSPLANE_AXIS=X
		DEPTH_AXIS=Depth
		INPLANE_AXIS_DIR=TARGET_GUN
		CROSSPLANE_AXIS_DIR=LEFT_RIGHT
		DEPTH_AXIS_DIR=UP_DOWN
		ENERGY=6.00
		NOMINAL_DMAX=15.00
		SSD=850.00
		SCD=450.00
		WEDGE_ANGLE=0.00
		FIELD_INPLANE=240.70
		FIELD_CROSSPLANE=240.70
		FIELD_TYPE=RECTANGULAR
		GANTRY=0.00
		GANTRY_UPRIGHT_POSITION=0
		GANTRY_ROTATION=CW
		COLL_ANGLE=0.00
		COLL_OFFSET_INPLANE=0.00
		COLL_OFFSET_CROSSPLANE=0.00
		SCAN_DEVICE=BeamScan
		SCAN_DEVICE_SETUP=BARA_LEFT_RIGHT
		ELECTROMETER=BeamScan
		RANGE_FIELD=LOW
		RANGE_REFERENCE=MEDIUM
		DETECTOR=THIMBLE_CHAMBER
		DETECTOR_RADIUS=2.40
		DETECTOR_NAME=A28MR
		DETECTOR_SN=-
		DETECTOR_CALIBRATION=588000000.00
		DETECTOR_IS_CALIBRATED=0
		DETECTOR_REFERENCE=THIMBLE_CHAMBER
		DETECTOR_REFERENCE_RADIUS=2.75
		DETECTOR_REFERENCE_NAME=A28MR
		DETECTOR_REFERENCE_SN=—
		DETECTOR_REFERENCE_IS_CALIBRATED=0
		DETECTOR_REFERENCE_CALIBRATION=303000000.00
		DETECTOR_HV=300.0
		DETECTOR_REFERENCE_HV=300.0
		DETECTOR_ORIENTATION=HORIZONTAL
		FILTER=FFF
		SCAN_SPEED_PROFILE=10.00
		SCAN_PROF_SPEED_DEP=DEPTH
		SCAN_SPEED_PDD=0.00
		SCAN_PDD_SPEED_DEP=ENERGY
		DETECTOR_TYPE=A28MR
		REF_FIELD_DEPTH=220.00
		REF_FIELD_DEFINED=ISOCENTER
		REF_FIELD_INPLANE=100.00
		REF_FIELD_CROSSPLANE=100.00
		REF_SCAN_POSITIONS=-85.00;-84.00;-83.00;-82.00;-81.00;-80.00;-79.00;-78.00;-77.00;-76.00;-75.00;-74.00;-73.00;-72.00;-71.00;-70.00;-69.00;-68.00;-67.00;-66.00;-65.00;-64.00;-63.00;-62.00;-61.00;-60.00;-59.00;-58.00;-57.00;-56.00;-55.00;-54.00;-53.00;-52.00;-51.00;-50.00;-49.00;-48.00;-47.00;-46.00;-45.00;-44.00;-43.00;-42.00;-41.00;-40.00;-39.00;-38.00;-37.00;-36.00;-35.00;-34.00;-33.00;-32.00;-31.00;-30.00;-29.00;-28.00;-27.00;-26.00;-25.00;-24.00;-23.00;-22.00;-21.00;-20.00;-19.00;-18.00;-17.00;-16.00;-15.00;-14.00;-13.00;-12.00;-11.00;-10.00;-9.00;-8.00;-7.00;-6.00;-5.00;-4.00;-3.00;-2.00;-1.00;0.00;1.00;2.00;3.00;4.00;5.00;6.00;7.00;8.00;9.00;10.00;11.00;12.00;13.00;14.00;15.00;16.00;17.00;18.00;19.00;20.00;21.00;22.00;23.00;24.00;25.00;26.00;27.00;28.00;29.00;30.00;31.00;32.00;33.00;34.00;35.00;36.00;37.00;38.00;39.00;40.00;41.00;42.00;43.00;44.00;45.00;46.00;47.00;48.00;49.00;50.00;51.00;52.00;53.00;54.00;55.00;56.00;57.00;58.00;59.00;60.00;61.00;62.00;63.00;64.00;65.00;66.00;67.00;68.00;69.00;70.00;71.00;72.00;73.00;74.00;75.00;76.00;77.00;78.00;79.00;80.00;81.00;82.00;83.00;84.00;85.00;
		REF_OVERSCAN_FACTOR=1.00
		SCAN_CURVETYPE=CROSSPLANE_PROFILE
		SCAN_DEPTH=55.00
		SCAN_OFFAXIS_INPLANE=0.00
		SCAN_OFFAXIS_CROSSPLANE=0.00
		SCAN_ANGLE=0.00
		SCAN_DIAGONAL=NOT_DIAGONAL
		SCAN_DIRECTION=POSITIVE
		MEAS_MEDIUM=WATER
		MEAS_PRESET=MEAS_CONTINUOUS_REFERENCE_SCAN
		MEAS_TIME=0.100
		MEAS_UNIT=A.U.
		INCLINATION_ANGLE=0.00
		PRESSURE=1013.25
		TEMPERATURE=20.00
		NORM_TEMPERATURE=20.00
		CORRECTION_FACTOR=1.0000
		EXPECTED_MAX_DOSE_RATE=3.00
		EPOM_DEPTH_SHIFT=0.2
		EPOM_MODE=SHIFT_PROTOCOL
		CORRECTIONS=SMOOTHED_CORR;CAX_CORR;INTERPOLATED_CORR;SYMMETRY_CORR;
		BEGIN_DATA
			-160.00		14.291E+00
			-159.50		14.279E+00
			-159.00		14.376E+00
			-158.50		14.476E+00
			-158.00		14.595E+00
			-157.50		14.768E+00
			-157.00		14.948E+00
			-156.50		15.066E+00
			-156.00		15.194E+00
			-155.50		15.368E+00
			-155.00		15.551E+00
			-154.50		15.759E+00
			-154.00		15.970E+00
			-153.50		16.138E+00
			-153.00		16.281E+00
			-152.50		16.436E+00
			-152.00		16.602E+00
			-151.50		16.775E+00
			-151.00		16.951E+00
			-150.50		17.133E+00
			-150.00		17.317E+00
			-149.50		17.518E+00
			-149.00		17.747E+00
			-148.50		17.960E+00
			-148.00		18.155E+00
			-147.50		18.345E+00
			-147.00		18.531E+00
			-146.50		18.771E+00
			-146.00		19.056E+00
			-145.50		19.314E+00
			-145.00		19.551E+00
			-144.50		19.797E+00
			-144.00		20.043E+00
			-143.50		20.286E+00
			-143.00		20.551E+00
			-142.50		20.802E+00
			-142.00		21.010E+00
			-141.50		21.274E+00
			-141.00		21.611E+00
			-140.50		21.944E+00
			-140.00		22.274E+00
			-139.50		22.618E+00
			-139.00		22.924E+00
			-138.50		23.233E+00
			-138.00		23.608E+00
			-137.50		23.977E+00
			-137.00		24.293E+00
			-136.50		24.631E+00
			-136.00		25.022E+00
			-135.50		25.439E+00
			-135.00		25.880E+00
			-134.50		26.358E+00
			-134.00		26.818E+00
			-133.50		27.288E+00
			-133.00		27.793E+00
			-132.50		28.301E+00
			-132.00		28.840E+00
			-131.50		29.424E+00
			-131.00		30.027E+00
			-130.50		30.688E+00
			-130.00		31.455E+00
			-129.50		32.389E+00
			-129.00		33.396E+00
			-128.50		34.491E+00
			-128.00		35.798E+00
			-127.50		37.437E+00
			-127.00		39.385E+00
			-126.50		41.835E+00
			-126.00		44.869E+00
			-125.50		49.037E+00
			-125.00		54.248E+00
			-124.50		60.917E+00
			-124.00		68.857E+00
			-123.50		78.200E+00
			-123.00		88.607E+00
			-122.50		100.13E+00
			-122.00		112.18E+00
			-121.50		124.44E+00
			-121.00		136.81E+00
			-120.50		149.29E+00
			-120.00		161.63E+00
			-119.50		173.40E+00
			-119.00		184.45E+00
			-118.50		194.29E+00
			-118.00		202.96E+00
			-117.50		210.18E+00
			-117.00		216.18E+00
			-116.50		220.82E+00
			-116.00		224.68E+00
			-115.50		227.80E+00
			-115.00		230.38E+00
			-114.50		232.48E+00
			-114.00		234.45E+00
			-113.50		236.32E+00
			-113.00		238.04E+00
			-112.50		239.55E+00
			-112.00		240.85E+00
			-111.50		241.99E+00
			-111.00		243.10E+00
			-110.50		244.19E+00
			-110.00		245.26E+00
			-109.50		246.24E+00
			-109.00		247.14E+00
			-108.50		248.01E+00
			-108.00		248.82E+00
			-107.50		249.64E+00
			-107.00		250.46E+00
			-106.50		251.26E+00
			-106.00		252.04E+00
			-105.50		252.79E+00
			-105.00		253.53E+00
			-104.50		254.27E+00
			-104.00		255.03E+00
			-103.50		255.83E+00
			-103.00		256.67E+00
			-102.50		257.54E+00
			-102.00		258.42E+00
			-101.50		259.27E+00
			-101.00		260.09E+00
			-100.50		260.85E+00
			-100.00		261.57E+00
			-99.50		262.23E+00
			-99.00		262.88E+00
			-98.50		263.55E+00
			-98.00		264.23E+00
			-97.50		264.95E+00
			-97.00		265.70E+00
			-96.50		266.45E+00
			-96.00		267.20E+00
			-95.50		267.95E+00
			-95.00		268.68E+00
			-94.50		269.42E+00
			-94.00		270.15E+00
			-93.50		270.88E+00
			-93.00		271.60E+00
			-92.50		272.31E+00
			-92.00		273.03E+00
			-91.50		273.72E+00
			-91.00		274.40E+00
			-90.50		275.07E+00
			-90.00		275.73E+00
			-89.50		276.40E+00
			-89.00		277.07E+00
			-88.50		277.74E+00
			-88.00		278.43E+00
			-87.50		279.11E+00
			-87.00		279.82E+00
			-86.50		280.57E+00
			-86.00		281.33E+00
			-85.50		282.13E+00
			-85.00		282.92E+00
			-84.50		283.70E+00
			-84.00		284.45E+00
			-83.50		285.20E+00
			-83.00		285.93E+00
			-82.50		286.70E+00
			-82.00		287.48E+00
			-81.50		288.26E+00
			-81.00		289.04E+00
			-80.50		289.77E+00
			-80.00		290.52E+00
			-79.50		291.27E+00
			-79.00		292.02E+00
			-78.50		292.81E+00
			-78.00		293.58E+00
			-77.50		294.37E+00
			-77.00		295.14E+00
			-76.50		295.90E+00
			-76.00		296.68E+00
			-75.50		297.45E+00
			-75.00		298.22E+00
			-74.50		298.97E+00
			-74.00		299.70E+00
			-73.50		300.40E+00
			-73.00		301.08E+00
			-72.50		301.76E+00
			-72.00		302.45E+00
			-71.50		303.13E+00
			-71.00		303.83E+00
			-70.50		304.53E+00
			-70.00		305.23E+00
			-69.50		305.93E+00
			-69.00		306.64E+00
			-68.50		307.34E+00
			-68.00		308.06E+00
			-67.50		308.78E+00
			-67.00		309.51E+00
			-66.50		310.26E+00
			-66.00		311.02E+00
			-65.50		311.78E+00
			-65.00		312.54E+00
			-64.50		313.27E+00
			-64.00		313.98E+00
			-63.50		314.65E+00
			-63.00		315.29E+00
			-62.50		315.91E+00
			-62.00		316.52E+00
			-61.50		317.14E+00
			-61.00		317.78E+00
			-60.50		318.45E+00
			-60.00		319.15E+00
			-59.50		319.89E+00
			-59.00		320.63E+00
			-58.50		321.38E+00
			-58.00		322.12E+00
			-57.50		322.85E+00
			-57.00		323.58E+00
			-56.50		324.32E+00
			-56.00		325.03E+00
			-55.50		325.73E+00
			-55.00		326.42E+00
			-54.50		327.11E+00
			-54.00		327.81E+00
			-53.50		328.51E+00
			-53.00		329.23E+00
			-52.50		329.96E+00
			-52.00		330.68E+00
			-51.50		331.38E+00
			-51.00		332.04E+00
			-50.50		332.65E+00
			-50.00		333.24E+00
			-49.50		333.85E+00
			-49.00		334.51E+00
			-48.50		335.24E+00
			-48.00		336.01E+00
			-47.50		336.78E+00
			-47.00		337.53E+00
			-46.50		338.22E+00
			-46.00		338.86E+00
			-45.50		339.49E+00
			-45.00		340.09E+00
			-44.50		340.70E+00
			-44.00		341.32E+00
			-43.50		341.95E+00
			-43.00		342.61E+00
			-42.50		343.32E+00
			-42.00		344.03E+00
			-41.50		344.76E+00
			-41.00		345.47E+00
			-40.50		346.15E+00
			-40.00		346.79E+00
			-39.50		347.39E+00
			-39.00		347.97E+00
			-38.50		348.53E+00
			-38.00		349.10E+00
			-37.50		349.70E+00
			-37.00		350.32E+00
			-36.50		350.94E+00
			-36.00		351.59E+00
			-35.50		352.21E+00
			-35.00		352.83E+00
			-34.50		353.46E+00
			-34.00		354.07E+00
			-33.50		354.67E+00
			-33.00		355.26E+00
			-32.50		355.80E+00
			-32.00		356.35E+00
			-31.50		356.88E+00
			-31.00		357.41E+00
			-30.50		357.94E+00
			-30.00		358.46E+00
			-29.50		358.93E+00
			-29.00		359.38E+00
			-28.50		359.78E+00
			-28.00		360.18E+00
			-27.50		360.59E+00
			-27.00		361.01E+00
			-26.50		361.46E+00
			-26.00		361.92E+00
			-25.50		362.41E+00
			-25.00		362.90E+00
			-24.50		363.37E+00
			-24.00		363.84E+00
			-23.50		364.29E+00
			-23.00		364.72E+00
			-22.50		365.12E+00
			-22.00		365.50E+00
			-21.50		365.88E+00
			-21.00		366.27E+00
			-20.50		366.70E+00
			-20.00		367.15E+00
			-19.50		367.61E+00
			-19.00		368.06E+00
			-18.50		368.47E+00
			-18.00		368.84E+00
			-17.50		369.19E+00
			-17.00		369.53E+00
			-16.50		369.86E+00
			-16.00		370.21E+00
			-15.50		370.53E+00
			-15.00		370.84E+00
			-14.50		371.12E+00
			-14.00		371.37E+00
			-13.50		371.60E+00
			-13.00		371.82E+00
			-12.50		372.05E+00
			-12.00		372.27E+00
			-11.50		372.52E+00
			-11.00		372.74E+00
			-10.50		372.96E+00
			-10.00		373.16E+00
			-9.50		373.36E+00
			-9.00		373.58E+00
			-8.50		373.77E+00
			-8.00		373.97E+00
			-7.50		374.14E+00
			-7.00		374.28E+00
			-6.50		374.42E+00
			-6.00		374.53E+00
			-5.50		374.64E+00
			-5.00		374.71E+00
			-4.50		374.74E+00
			-4.00		374.77E+00
			-3.50		374.79E+00
			-3.00		374.85E+00
			-2.50		374.92E+00
			-2.00		375.02E+00
			-1.50		375.10E+00
			-1.00		375.14E+00
			-0.50		375.16E+00
			0.00		375.16E+00
			0.50		375.16E+00
			1.00		375.14E+00
			1.50		375.10E+00
			2.00		375.02E+00
			2.50		374.92E+00
			3.00		374.85E+00
			3.50		374.79E+00
			4.00		374.77E+00
			4.50		374.74E+00
			5.00		374.71E+00
			5.50		374.64E+00
			6.00		374.53E+00
			6.50		374.42E+00
			7.00		374.28E+00
			7.50		374.14E+00
			8.00		373.97E+00
			8.50		373.77E+00
			9.00		373.58E+00
			9.50		373.36E+00
			10.00		373.16E+00
			10.50		372.96E+00
			11.00		372.74E+00
			11.50		372.52E+00
			12.00		372.27E+00
			12.50		372.05E+00
			13.00		371.82E+00
			13.50		371.60E+00
			14.00		371.37E+00
			14.50		371.12E+00
			15.00		370.84E+00
			15.50		370.53E+00
			16.00		370.21E+00
			16.50		369.86E+00
			17.00		369.53E+00
			17.50		369.19E+00
			18.00		368.84E+00
			18.50		368.47E+00
			19.00		368.06E+00
			19.50		367.61E+00
			20.00		367.15E+00
			20.50		366.70E+00
			21.00		366.27E+00
			21.50		365.88E+00
			22.00		365.50E+00
			22.50		365.12E+00
			23.00		364.72E+00
			23.50		364.29E+00
			24.00		363.84E+00
			24.50		363.37E+00
			25.00		362.90E+00
			25.50		362.41E+00
			26.00		361.92E+00
			26.50		361.46E+00
			27.00		361.01E+00
			27.50		360.59E+00
			28.00		360.18E+00
			28.50		359.78E+00
			29.00		359.38E+00
			29.50		358.93E+00
			30.00		358.46E+00
			30.50		357.94E+00
			31.00		357.41E+00
			31.50		356.88E+00
			32.00		356.35E+00
			32.50		355.80E+00
			33.00		355.26E+00
			33.50		354.67E+00
			34.00		354.07E+00
			34.50		353.46E+00
			35.00		352.83E+00
			35.50		352.21E+00
			36.00		351.59E+00
			36.50		350.94E+00
