BEGIN_SCAN_DATA
	FORMAT=CC-Export V1.9                  
	FILE_CREATION_DATE=10-Mar-2022 18:59:52
	LAST_MODIFIED=10-Mar-2022 18:59:52
	BEGIN_SCAN  1
		TASK_NAME=tba PDD Profiles
		PROGRAM=WaterTankScans
		COMMENT=Mater Olbia-corrected for Ref
		MEAS_DATE=08-Feb-2021 09:38:10
		LINAC=MRIdian
		MODALITY=X
		ISOCENTER=900.00
		INPLANE_AXIS=Y
		CROSSPLANE_AXIS=X
		DEPTH_AXIS=Depth
		INPLANE_AXIS_DIR=TARGET_GUN
		CROSSPLANE_AXIS_DIR=LEFT_RIGHT
		DEPTH_AXIS_DIR=UP_DOWN
		ENERGY=6.00
		NOMINAL_DMAX=15.00
		SSD=850.00
		SCD=450.00
		WEDGE_ANGLE=0.00
		FIELD_INPLANE=149.40
		FIELD_CROSSPLANE=149.40
		FIELD_TYPE=RECTANGULAR
		GANTRY=0.00
		GANTRY_UPRIGHT_POSITION=0
		GANTRY_ROTATION=CW
		COLL_ANGLE=0.00
		COLL_OFFSET_INPLANE=0.00
		COLL_OFFSET_CROSSPLANE=0.00
		SCAN_DEVICE=BeamScan
		SCAN_DEVICE_SETUP=BARA_LEFT_RIGHT
		ELECTROMETER=BeamScan
		RANGE_FIELD=LOW
		RANGE_REFERENCE=MEDIUM
		DETECTOR=THIMBLE_CHAMBER
		DETECTOR_RADIUS=2.40
		DETECTOR_NAME=A28MR
		DETECTOR_SN=-
		DETECTOR_CALIBRATION=588000000.00
		DETECTOR_IS_CALIBRATED=0
		DETECTOR_REFERENCE=THIMBLE_CHAMBER
		DETECTOR_REFERENCE_RADIUS=2.75
		DETECTOR_REFERENCE_NAME=A28MR
		DETECTOR_REFERENCE_SN=—
		DETECTOR_REFERENCE_IS_CALIBRATED=0
		DETECTOR_REFERENCE_CALIBRATION=303000000.00
		DETECTOR_HV=300.0
		DETECTOR_REFERENCE_HV=300.0
		DETECTOR_ORIENTATION=HORIZONTAL
		FILTER=FFF
		SCAN_SPEED_PROFILE=10.00
		SCAN_PROF_SPEED_DEP=DEPTH
		SCAN_SPEED_PDD=0.00
		SCAN_PDD_SPEED_DEP=ENERGY
		DETECTOR_TYPE=A28MR
		REF_FIELD_DEPTH=220.00
		REF_FIELD_DEFINED=ISOCENTER
		REF_FIELD_INPLANE=100.00
		REF_FIELD_CROSSPLANE=100.00
		REF_SCAN_POSITIONS=-85.00;-84.00;-83.00;-82.00;-81.00;-80.00;-79.00;-78.00;-77.00;-76.00;-75.00;-74.00;-73.00;-72.00;-71.00;-70.00;-69.00;-68.00;-67.00;-66.00;-65.00;-64.00;-63.00;-62.00;-61.00;-60.00;-59.00;-58.00;-57.00;-56.00;-55.00;-54.00;-53.00;-52.00;-51.00;-50.00;-49.00;-48.00;-47.00;-46.00;-45.00;-44.00;-43.00;-42.00;-41.00;-40.00;-39.00;-38.00;-37.00;-36.00;-35.00;-34.00;-33.00;-32.00;-31.00;-30.00;-29.00;-28.00;-27.00;-26.00;-25.00;-24.00;-23.00;-22.00;-21.00;-20.00;-19.00;-18.00;-17.00;-16.00;-15.00;-14.00;-13.00;-12.00;-11.00;-10.00;-9.00;-8.00;-7.00;-6.00;-5.00;-4.00;-3.00;-2.00;-1.00;0.00;1.00;2.00;3.00;4.00;5.00;6.00;7.00;8.00;9.00;10.00;11.00;12.00;13.00;14.00;15.00;16.00;17.00;18.00;19.00;20.00;21.00;22.00;23.00;24.00;25.00;26.00;27.00;28.00;29.00;30.00;31.00;32.00;33.00;34.00;35.00;36.00;37.00;38.00;39.00;40.00;41.00;42.00;43.00;44.00;45.00;46.00;47.00;48.00;49.00;50.00;51.00;52.00;53.00;54.00;55.00;56.00;57.00;58.00;59.00;60.00;61.00;62.00;63.00;64.00;65.00;66.00;67.00;68.00;69.00;70.00;71.00;72.00;73.00;74.00;75.00;76.00;77.00;78.00;79.00;80.00;81.00;82.00;83.00;84.00;85.00;
		REF_OVERSCAN_FACTOR=1.00
		SCAN_CURVETYPE=CROSSPLANE_PROFILE
		SCAN_DEPTH=20.00
		SCAN_OFFAXIS_INPLANE=0.00
		SCAN_OFFAXIS_CROSSPLANE=0.00
		SCAN_ANGLE=0.00
		SCAN_DIAGONAL=NOT_DIAGONAL
		SCAN_DIRECTION=POSITIVE
		MEAS_MEDIUM=WATER
		MEAS_PRESET=MEAS_CONTINUOUS_REFERENCE_SCAN
		MEAS_TIME=0.100
		MEAS_UNIT=A.U.
		INCLINATION_ANGLE=0.00
		PRESSURE=1013.25
		TEMPERATURE=20.00
		NORM_TEMPERATURE=20.00
		CORRECTION_FACTOR=1.0000
		EXPECTED_MAX_DOSE_RATE=3.00
		EPOM_DEPTH_SHIFT=0.2
		EPOM_MODE=SHIFT_PROTOCOL
		CORRECTIONS=CAX_CORR;SYMMETRY_CORR;INTERPOLATED_CORR;
		BEGIN_DATA
			-110.00		9.1872E+00
			-109.50		9.2456E+00
			-109.00		9.3384E+00
			-108.50		9.4600E+00
			-108.00		9.5709E+00
			-107.50		9.6433E+00
			-107.00		9.7233E+00
			-106.50		9.8304E+00
			-106.00		9.9317E+00
			-105.50		10.030E+00
			-105.00		10.140E+00
			-104.50		10.260E+00
			-104.00		10.366E+00
			-103.50		10.477E+00
			-103.00		10.606E+00
			-102.50		10.733E+00
			-102.00		10.860E+00
			-101.50		11.024E+00
			-101.00		11.189E+00
			-100.50		11.312E+00
			-100.00		11.439E+00
			-99.50		11.597E+00
			-99.00		11.764E+00
			-98.50		11.946E+00
			-98.00		12.114E+00
			-97.50		12.270E+00
			-97.00		12.440E+00
			-96.50		12.570E+00
			-96.00		12.702E+00
			-95.50		12.928E+00
			-95.00		13.163E+00
			-94.50		13.375E+00
			-94.00		13.580E+00
			-93.50		13.730E+00
			-93.00		13.859E+00
			-92.50		14.047E+00
			-92.00		14.280E+00
			-91.50		14.525E+00
			-91.00		14.781E+00
			-90.50		15.054E+00
			-90.00		15.317E+00
			-89.50		15.593E+00
			-89.00		15.882E+00
			-88.50		16.182E+00
			-88.00		16.494E+00
			-87.50		16.804E+00
			-87.00		17.126E+00
			-86.50		17.512E+00
			-86.00		17.904E+00
			-85.50		18.293E+00
			-85.00		18.710E+00
			-84.50		19.215E+00
			-84.00		19.727E+00
			-83.50		20.234E+00
			-83.00		20.794E+00
			-82.50		21.477E+00
			-82.00		22.173E+00
			-81.50		22.866E+00
			-81.00		23.602E+00
			-80.50		24.578E+00
			-80.00		25.683E+00
			-79.50		27.036E+00
			-79.00		28.582E+00
			-78.50		30.608E+00
			-78.00		32.978E+00
			-77.50		36.342E+00
			-77.00		40.442E+00
			-76.50		46.329E+00
			-76.00		53.402E+00
			-75.50		63.452E+00
			-75.00		74.846E+00
			-74.50		89.277E+00
			-74.00		105.30E+00
			-73.50		123.53E+00
			-73.00		142.85E+00
			-72.50		163.28E+00
			-72.00		183.80E+00
			-71.50		204.51E+00
			-71.00		225.12E+00
			-70.50		244.49E+00
			-70.00		263.01E+00
			-69.50		279.71E+00
			-69.00		295.06E+00
			-68.50		307.17E+00
			-68.00		317.89E+00
			-67.50		326.09E+00
			-67.00		333.08E+00
			-66.50		338.24E+00
			-66.00		342.69E+00
			-65.50		346.34E+00
			-65.00		349.63E+00
			-64.50		352.16E+00
			-64.00		354.48E+00
			-63.50		356.54E+00
			-63.00		358.41E+00
			-62.50		360.12E+00
			-62.00		361.81E+00
			-61.50		363.18E+00
			-61.00		364.44E+00
			-60.50		365.81E+00
			-60.00		367.21E+00
			-59.50		368.48E+00
			-59.00		369.66E+00
			-58.50		370.73E+00
			-58.00		371.82E+00
			-57.50		373.17E+00
			-57.00		374.51E+00
			-56.50		375.42E+00
			-56.00		376.22E+00
			-55.50		377.34E+00
			-55.00		378.62E+00
			-54.50		379.45E+00
			-54.00		380.14E+00
			-53.50		381.39E+00
			-53.00		382.71E+00
			-52.50		383.73E+00
			-52.00		384.81E+00
			-51.50		385.96E+00
			-51.00		386.93E+00
			-50.50		387.74E+00
			-50.00		388.70E+00
			-49.50		389.88E+00
			-49.00		390.87E+00
			-48.50		391.53E+00
			-48.00		392.27E+00
			-47.50		393.25E+00
			-47.00		394.28E+00
			-46.50		395.34E+00
			-46.00		396.36E+00
			-45.50		397.24E+00
			-45.00		398.06E+00
			-44.50		398.84E+00
			-44.00		399.65E+00
			-43.50		400.67E+00
			-43.00		401.89E+00
			-42.50		402.91E+00
			-42.00		403.54E+00
			-41.50		404.03E+00
			-41.00		404.75E+00
			-40.50		405.71E+00
			-40.00		406.82E+00
			-39.50		407.95E+00
			-39.00		408.91E+00
			-38.50		409.68E+00
			-38.00		410.39E+00
			-37.50		410.94E+00
			-37.00		411.58E+00
			-36.50		412.65E+00
			-36.00		413.75E+00
			-35.50		414.58E+00
			-35.00		415.36E+00
			-34.50		416.34E+00
			-34.00		417.29E+00
			-33.50		417.93E+00
			-33.00		418.58E+00
			-32.50		419.44E+00
			-32.00		420.33E+00
			-31.50		421.20E+00
			-31.00		421.98E+00
			-30.50		422.63E+00
			-30.00		423.36E+00
			-29.50		424.12E+00
			-29.00		424.83E+00
			-28.50		425.51E+00
			-28.00		426.06E+00
			-27.50		426.67E+00
			-27.00		427.42E+00
			-26.50		428.24E+00
			-26.00		428.90E+00
			-25.50		429.43E+00
			-25.00		430.10E+00
			-24.50		431.05E+00
			-24.00		431.94E+00
			-23.50		432.47E+00
			-23.00		432.87E+00
			-22.50		433.18E+00
			-22.00		433.53E+00
			-21.50		434.21E+00
			-21.00		435.02E+00
			-20.50		435.79E+00
			-20.00		436.51E+00
			-19.50		437.16E+00
			-19.00		437.76E+00
			-18.50		438.29E+00
			-18.00		438.82E+00
			-17.50		439.57E+00
			-17.00		440.27E+00
			-16.50		440.51E+00
			-16.00		440.75E+00
			-15.50		441.25E+00
			-15.00		441.71E+00
			-14.50		442.10E+00
			-14.00		442.51E+00
			-13.50		442.80E+00
			-13.00		443.08E+00
			-12.50		443.46E+00
			-12.00		443.91E+00
			-11.50		444.49E+00
			-11.00		444.99E+00
			-10.50		445.28E+00
			-10.00		445.67E+00
			-9.50		446.06E+00
			-9.00		446.30E+00
			-8.50		446.38E+00
			-8.00		446.46E+00
			-7.50		446.67E+00
			-7.00		446.97E+00
			-6.50		447.42E+00
			-6.00		447.91E+00
			-5.50		447.97E+00
			-5.00		447.79E+00
			-4.50		448.00E+00
			-4.00		448.46E+00
			-3.50		448.81E+00
			-3.00		448.97E+00
			-2.50		448.80E+00
			-2.00		448.68E+00
			-1.50		448.75E+00
			-1.00		448.80E+00
			-0.50		448.93E+00
			0.00		449.05E+00
			0.50		448.93E+00
			1.00		448.80E+00
			1.50		448.75E+00
			2.00		448.68E+00
			2.50		448.80E+00
			3.00		448.97E+00
			3.50		448.81E+00
			4.00		448.46E+00
			4.50		448.00E+00
			5.00		447.79E+00
			5.50		447.97E+00
			6.00		447.91E+00
			6.50		447.42E+00
			7.00		446.97E+00
			7.50		446.67E+00
			8.00		446.46E+00
			8.50		446.38E+00
			9.00		446.30E+00
			9.50		446.06E+00
			10.00		445.67E+00
			10.50		445.28E+00
			11.00		444.99E+00
			11.50		444.49E+00
			12.00		443.91E+00
			12.50		443.46E+00
			13.00		443.08E+00
			13.50		442.80E+00
			14.00		442.51E+00
			14.50		442.10E+00
			15.00		441.71E+00
			15.50		441.25E+00
			16.00		440.75E+00
			16.50		440.51E+00
			17.00		440.27E+00
			17.50		439.57E+00
			18.00		438.82E+00
			18.50		438.29E+00
			19.00		437.76E+00
			19.50		437.16E+00
			20.00		436.51E+00
			20.50		435.79E+00
			21.00		435.02E+00
			21.50		434.21E+00
			22.00		433.53E+00
			22.50		433.18E+00
			23.00		432.87E+00
			23.50		432.47E+00
			24.00		431.94E+00
			24.50		431.05E+00
			25.00		430.10E+00
			25.50		429.43E+00
			26.00		428.90E+00
			26.50		428.24E+00
			27.00		427.42E+00
			27.50		426.67E+00
			28.00		426.06E+00
			28.50		425.51E+00
			29.00		424.83E+00
			29.50		424.12E+00
			30.00		423.36E+00
			30.50		422.63E+00
			31.00		421.98E+00
			31.50		421.20E+00
			32.00		420.33E+00
			32.50		419.44E+00
			33.00		418.58E+00
			33.50		417.93E+00
			34.00		417.29E+00
			34.50		416.34E+00
			35.00		415.36E+00
			35.50		414.58E+00
			36.00		413.75E+00
			36.50		412.65E+00
			37.00		411.58E+00
			37.50		410.94E+00
			38.00		410.39E+00
			38.50		409.68E+00
			39.00		408.91E+00
			39.50		407.95E+00
			40.00		406.82E+00
			40.50		405.71E+00
			41.00		404.75E+00
			41.50		404.03E+00
			42.00		403.54E+00
			42.50		402.91E+00
			43.00		401.89E+00
			43.50		400.67E+00
			44.00		399.65E+00
			44.50		398.84E+00
			45.00		398.06E+00
			45.50		397.24E+00
			46.00		396.36E+00
			46.50		395.34E+00
			47.00		394.28E+00
			47.50		393.25E+00
			48.00		392.27E+00
			48.50		391.53E+00
			49.00		390.87E+00
			49.50		389.88E+00
			50.00		388.70E+00
			50.50		387.74E+00
			51.00		386.93E+00
			51.50		385.96E+00
			52.00		384.81E+00
			52.50		383.73E+00
			53.00		382.71E+00
			53.50		381.39E+00
			54.00		380.14E+00
			54.50		379.45E+00
			55.00		378.62E+00
			55.50		377.34E+00
			56.00		376.22E+00
			56.50		375.42E+00
			57.00		374.51E+00
			57.50		373.17E+00
			58.00		371.82E+00
			58.50		370.73E+00
			59.00		369.66E+00
			59.50		368.48E+00
			60.00		367.21E+00
			60.50		365.81E+00
			61.00		364.44E+00
			61.50		363.18E+00
			62.00		361.81E+00
			62.50		360.12E+00
			63.00		358.41E+00
			63.50		356.54E+00
			64.00		354.48E+00
			64.50		352.16E+00
			65.00		349.63E+00
			65.50		346.34E+00
			66.00		342.69E+00
			66.50		338.24E+00
			67.00		333.08E+00
			67.50		326.09E+00
			68.00		317.89E+00
			68.50		307.17E+00
			69.00		295.06E+00
			69.50		279.71E+00
			70.00		263.01E+00
			70.50		244.49E+00
			71.00		225.12E+00
			71.50		204.51E+00
			72.00		183.80E+00
			72.50		163.28E+00
			73.00		142.85E+00
			73.50		123.53E+00
			74.00		105.30E+00
			74.50		89.277E+00
			75.00		74.846E+00
			75.50		63.452E+00
			76.00		53.402E+00
			76.50		46.329E+00
			77.00		40.442E+00
			77.50		36.342E+00
			78.00		32.978E+00
			78.50		30.608E+00
			79.00		28.582E+00
			79.50		27.036E+00
			80.00		25.683E+00
			80.50		24.578E+00
			81.00		23.602E+00
			81.50		22.866E+00
			82.00		22.173E+00
			82.50		21.477E+00
			83.00		20.794E+00
			83.50		20.234E+00
			84.00		19.727E+00
			84.50		19.215E+00
			85.00		18.710E+00
			85.50		18.293E+00
			86.00		17.904E+00
			86.50		17.512E+00
			87.00		17.126E+00
			87.50		16.804E+00
			88.00		16.494E+00
			88.50		16.182E+00
			89.00		15.882E+00
			89.50		15.593E+00
			90.00		15.317E+00
			90.50		15.054E+00
			91.00		14.781E+00
			91.50		14.525E+00
			92.00		14.280E+00
			92.50		14.047E+00
			93.00		13.859E+00
			93.50		13.730E+00
			94.00		13.580E+00
			94.50		13.375E+00
			95.00		13.163E+00
			95.50		12.928E+00
			96.00		12.702E+00
			96.50		12.570E+00
			97.00		12.440E+00
			97.50		12.270E+00
			98.00		12.114E+00
			98.50		11.946E+00
			99.00		11.764E+00
			99.50		11.597E+00
			100.00		11.439E+00
			100.50		11.312E+00
			101.00		11.189E+00
			101.50		11.024E+00
			102.00		10.860E+00
			102.50		10.733E+00
			103.00		10.606E+00
			103.50		10.477E+00
			104.00		10.366E+00
			104.50		10.260E+00
			105.00		10.140E+00
			105.50		10.030E+00
			106.00		9.9317E+00
			106.50		9.8304E+00
			107.00		9.7233E+00
			107.50		9.6433E+00
			108.00		9.5709E+00
			108.50		9.4600E+00
			109.00		9.3384E+00
			109.50		9.2456E+00
			110.00		9.1872E+00
		END_DATA
	END_SCAN  1
	BEGIN_SCAN  2
		TASK_NAME=tba PDD Profiles
		PROGRAM=WaterTankScans
		COMMENT=Mater Olbia
		MEAS_DATE=10-Mar-2022 18:56:56
		LINAC=MRIdian
		MODALITY=X
		ISOCENTER=900.00
		INPLANE_AXIS=Y
		CROSSPLANE_AXIS=X
		DEPTH_AXIS=Depth
		INPLANE_AXIS_DIR=TARGET_GUN
		CROSSPLANE_AXIS_DIR=LEFT_RIGHT
		DEPTH_AXIS_DIR=UP_DOWN
		ENERGY=6.00
		NOMINAL_DMAX=15.00
		SSD=850.00
		SCD=450.00
		WEDGE_ANGLE=0.00
		FIELD_INPLANE=149.40
		FIELD_CROSSPLANE=149.40
		FIELD_TYPE=RECTANGULAR
		GANTRY=0.00
		GANTRY_UPRIGHT_POSITION=0
		GANTRY_ROTATION=CW
		COLL_ANGLE=0.00
		COLL_OFFSET_INPLANE=0.00
		COLL_OFFSET_CROSSPLANE=0.00
		SCAN_DEVICE=BeamScan
		SCAN_DEVICE_SETUP=BARA_LEFT_RIGHT
		ELECTROMETER=BeamScan
		RANGE_FIELD=LOW
		RANGE_REFERENCE=MEDIUM
		DETECTOR=THIMBLE_CHAMBER
		DETECTOR_RADIUS=2.40
		DETECTOR_NAME=A28MR
		DETECTOR_SN=-
		DETECTOR_CALIBRATION=588000000.00
		DETECTOR_IS_CALIBRATED=0
		DETECTOR_REFERENCE=THIMBLE_CHAMBER
		DETECTOR_REFERENCE_RADIUS=2.75
		DETECTOR_REFERENCE_NAME=A28MR
		DETECTOR_REFERENCE_SN=—
		DETECTOR_REFERENCE_IS_CALIBRATED=0
		DETECTOR_REFERENCE_CALIBRATION=303000000.00
		DETECTOR_HV=300.0
		DETECTOR_REFERENCE_HV=300.0
		DETECTOR_ORIENTATION=HORIZONTAL
		FILTER=FFF
		SCAN_SPEED_PROFILE=10.00
		SCAN_PROF_SPEED_DEP=DEPTH
		SCAN_SPEED_PDD=0.00
		SCAN_PDD_SPEED_DEP=ENERGY
		DETECTOR_TYPE=A28MR
		REF_FIELD_DEPTH=220.00
		REF_FIELD_DEFINED=ISOCENTER
		REF_FIELD_INPLANE=100.00
		REF_FIELD_CROSSPLANE=100.00
		REF_SCAN_POSITIONS=-85.00;-84.00;-83.00;-82.00;-81.00;-80.00;-79.00;-78.00;-77.00;-76.00;-75.00;-74.00;-73.00;-72.00;-71.00;-70.00;-69.00;-68.00;-67.00;-66.00;-65.00;-64.00;-63.00;-62.00;-61.00;-60.00;-59.00;-58.00;-57.00;-56.00;-55.00;-54.00;-53.00;-52.00;-51.00;-50.00;-49.00;-48.00;-47.00;-46.00;-45.00;-44.00;-43.00;-42.00;-41.00;-40.00;-39.00;-38.00;-37.00;-36.00;-35.00;-34.00;-33.00;-32.00;-31.00;-30.00;-29.00;-28.00;-27.00;-26.00;-25.00;-24.00;-23.00;-22.00;-21.00;-20.00;-19.00;-18.00;-17.00;-16.00;-15.00;-14.00;-13.00;-12.00;-11.00;-10.00;-9.00;-8.00;-7.00;-6.00;-5.00;-4.00;-3.00;-2.00;-1.00;0.00;1.00;2.00;3.00;4.00;5.00;6.00;7.00;8.00;9.00;10.00;11.00;12.00;13.00;14.00;15.00;16.00;17.00;18.00;19.00;20.00;21.00;22.00;23.00;24.00;25.00;26.00;27.00;28.00;29.00;30.00;31.00;32.00;33.00;34.00;35.00;36.00;37.00;38.00;39.00;40.00;41.00;42.00;43.00;44.00;45.00;46.00;47.00;48.00;49.00;50.00;51.00;52.00;53.00;54.00;55.00;56.00;57.00;58.00;59.00;60.00;61.00;62.00;63.00;64.00;65.00;66.00;67.00;68.00;69.00;70.00;71.00;72.00;73.00;74.00;75.00;76.00;77.00;78.00;79.00;80.00;81.00;82.00;83.00;84.00;85.00;
		REF_OVERSCAN_FACTOR=1.00
		SCAN_CURVETYPE=CROSSPLANE_PROFILE
		SCAN_DEPTH=55.00
		SCAN_OFFAXIS_INPLANE=0.00
		SCAN_OFFAXIS_CROSSPLANE=0.00
		SCAN_ANGLE=0.00
		SCAN_DIAGONAL=NOT_DIAGONAL
		SCAN_DIRECTION=POSITIVE
		MEAS_MEDIUM=WATER
		MEAS_PRESET=MEAS_CONTINUOUS_REFERENCE_SCAN
		MEAS_TIME=0.100
		MEAS_UNIT=A.U.
		INCLINATION_ANGLE=0.00
		PRESSURE=1013.25
		TEMPERATURE=20.00
		NORM_TEMPERATURE=20.00
		CORRECTION_FACTOR=1.0000
		EXPECTED_MAX_DOSE_RATE=3.00
		EPOM_DEPTH_SHIFT=0.2
		EPOM_MODE=SHIFT_PROTOCOL
		CORRECTIONS=SSD_CORR;CAX_CORR;ADD_CURVES_CORR;MODIFIED_CORR;SYMMETRY_CORR;INTERPOLATED_CORR;
		BEGIN_DATA
			-110.00		13.194E+00
			-109.50		13.318E+00
			-109.00		13.375E+00
			-108.50		13.776E+00
			-108.00		13.942E+00
			-107.50		13.992E+00
			-107.00		14.112E+00
			-106.50		14.238E+00
			-106.00		14.459E+00
			-105.50		14.627E+00
			-105.00		14.837E+00
			-104.50		15.024E+00
			-104.00		15.244E+00
			-103.50		15.433E+00
			-103.00		15.634E+00
			-102.50		15.844E+00
			-102.00		16.027E+00
			-101.50		16.241E+00
			-101.00		16.419E+00
			-100.50		16.722E+00
			-100.00		16.975E+00
			-99.50		17.266E+00
			-99.00		17.540E+00
			-98.50		17.714E+00
			-98.00		17.940E+00
			-97.50		18.176E+00
			-97.00		18.706E+00
			-96.50		18.928E+00
			-96.00		19.101E+00
			-95.50		19.529E+00
			-95.00		19.702E+00
			-94.50		20.119E+00
			-94.00		20.604E+00
			-93.50		20.936E+00
			-93.00		21.237E+00
			-92.50		21.440E+00
			-92.00		21.779E+00
			-91.50		22.311E+00
			-91.00		22.728E+00
			-90.50		23.205E+00
			-90.00		23.511E+00
			-89.50		24.105E+00
			-89.00		24.726E+00
			-88.50		25.165E+00
			-88.00		25.679E+00
			-87.50		26.398E+00
			-87.00		26.936E+00
			-86.50		27.495E+00
			-86.00		28.232E+00
			-85.50		29.005E+00
			-85.00		29.783E+00
			-84.50		30.730E+00
			-84.00		31.652E+00
			-83.50		32.778E+00
			-83.00		34.109E+00
			-82.50		35.370E+00
			-82.00		37.039E+00
			-81.50		38.989E+00
			-81.00		41.231E+00
			-80.50		44.348E+00
			-80.00		48.100E+00
			-79.50		52.994E+00
			-79.00		59.462E+00
			-78.50		67.125E+00
			-78.00		77.073E+00
			-77.50		88.201E+00
			-77.00		101.53E+00
			-76.50		115.73E+00
			-76.00		131.32E+00
			-75.50		147.60E+00
			-75.00		164.52E+00
			-74.50		181.43E+00
			-74.00		198.27E+00
			-73.50		214.71E+00
			-73.00		230.42E+00
			-72.50		244.97E+00
			-72.00		258.23E+00
			-71.50		269.26E+00
			-71.00		279.34E+00
			-70.50		287.30E+00
			-70.00		294.25E+00
			-69.50		299.67E+00
			-69.00		304.27E+00
			-68.50		307.99E+00
			-68.00		311.13E+00
			-67.50		313.94E+00
			-67.00		316.72E+00
			-66.50		319.17E+00
			-66.00		321.09E+00
			-65.50		322.88E+00
			-65.00		324.43E+00
			-64.50		326.11E+00
			-64.00		327.49E+00
			-63.50		328.85E+00
			-63.00		329.87E+00
			-62.50		330.91E+00
			-62.00		332.44E+00
			-61.50		333.91E+00
			-61.00		335.21E+00
			-60.50		336.28E+00
			-60.00		337.39E+00
			-59.50		338.57E+00
			-59.00		339.67E+00
			-58.50		340.65E+00
			-58.00		341.58E+00
			-57.50		342.69E+00
			-57.00		344.01E+00
			-56.50		344.88E+00
			-56.00		345.79E+00
			-55.50		346.88E+00
			-55.00		347.96E+00
			-54.50		348.95E+00
			-54.00		349.80E+00
			-53.50		350.69E+00
			-53.00		351.55E+00
			-52.50		352.43E+00
			-52.00		353.47E+00
			-51.50		354.50E+00
			-51.00		355.43E+00
			-50.50		356.42E+00
			-50.00		357.28E+00
			-49.50		358.15E+00
			-49.00		358.99E+00
			-48.50		359.98E+00
			-48.00		360.86E+00
			-47.50		361.73E+00
			-47.00		362.62E+00
			-46.50		363.45E+00
			-46.00		364.53E+00
			-45.50		365.41E+00
			-45.00		366.25E+00
			-44.50		367.14E+00
			-44.00		367.95E+00
			-43.50		368.66E+00
			-43.00		369.61E+00
			-42.50		370.50E+00
			-42.00		371.30E+00
			-41.50		371.99E+00
			-41.00		372.83E+00
			-40.50		373.72E+00
			-40.00		374.50E+00
			-39.50		375.18E+00
			-39.00		375.87E+00
			-38.50		376.53E+00
			-38.00		377.35E+00
			-37.50		378.21E+00
			-37.00		379.02E+00
			-36.50		379.76E+00
			-36.00		380.67E+00
			-35.50		381.50E+00
			-35.00		382.21E+00
			-34.50		382.92E+00
			-34.00		383.57E+00
			-33.50		384.31E+00
			-33.00		384.87E+00
			-32.50		385.68E+00
			-32.00		386.38E+00
			-31.50		386.83E+00
			-31.00		387.36E+00
			-30.50		388.06E+00
			-30.00		388.84E+00
			-29.50		389.55E+00
			-29.00		390.37E+00
			-28.50		390.95E+00
			-28.00		391.50E+00
			-27.50		391.92E+00
			-27.00		392.44E+00
			-26.50		392.96E+00
			-26.00		393.56E+00
			-25.50		394.16E+00
			-25.00		394.71E+00
			-24.50		395.28E+00
			-24.00		395.89E+00
			-23.50		396.62E+00
			-23.00		397.14E+00
			-22.50		397.74E+00
			-22.00		398.40E+00
			-21.50		398.95E+00
			-21.00		399.31E+00
			-20.50		399.83E+00
			-20.00		400.30E+00
			-19.50		400.77E+00
			-19.00		401.22E+00
			-18.50		401.68E+00
			-18.00		402.32E+00
			-17.50		402.85E+00
			-17.00		403.21E+00
			-16.50		403.48E+00
			-16.00		403.67E+00
			-15.50		403.89E+00
			-15.00		404.31E+00
			-14.50		404.85E+00
			-14.00		405.09E+00
			-13.50		405.24E+00
			-13.00		405.70E+00
			-12.50		406.15E+00
			-12.00		406.58E+00
			-11.50		406.80E+00
			-11.00		406.98E+00
			-10.50		407.28E+00
			-10.00		407.67E+00
			-9.50		408.19E+00
			-9.00		408.57E+00
			-8.50		408.89E+00
			-8.00		409.07E+00
			-7.50		409.07E+00
			-7.00		409.31E+00
			-6.50		409.48E+00
			-6.00		409.66E+00
			-5.50		409.90E+00
			-5.00		409.90E+00
			-4.50		410.08E+00
			-4.00		410.39E+00
			-3.50		410.47E+00
			-3.00		410.67E+00
			-2.50		410.72E+00
			-2.00		410.81E+00
			-1.50		411.03E+00
			-1.00		411.27E+00
			-0.50		411.40E+00
			0.00		411.54E+00
			0.50		411.40E+00
			1.00		411.27E+00
			1.50		411.03E+00
			2.00		410.81E+00
			2.50		410.72E+00
			3.00		410.67E+00
			3.50		410.47E+00
			4.00		410.39E+00
			4.50		410.08E+00
			5.00		409.90E+00
			5.50		409.90E+00
			6.00		409.66E+00
			6.50		409.48E+00
			7.00		409.31E+00
			7.50		409.07E+00
			8.00		409.07E+00
			8.50		408.89E+00
			9.00		408.57E+00
			9.50		408.19E+00
			10.00		407.67E+00
			10.50		407.28E+00
			11.00		406.98E+00
			11.50		406.80E+00
			12.00		406.58E+00
			12.50		406.15E+00
			13.00		405.70E+00
			13.50		405.24E+00
			14.00		405.09E+00
			14.50		404.85E+00
			15.00		404.31E+00
			15.50		403.89E+00
			16.00		403.67E+00
			16.50		403.48E+00
			17.00		403.21E+00
			17.50		402.85E+00
			18.00		402.32E+00
			18.50		401.68E+00
			19.00		401.22E+00
			19.50		400.77E+00
			20.00		400.30E+00
			20.50		399.83E+00
			21.00		399.31E+00
			21.50		398.95E+00
			22.00		398.40E+00
			22.50		397.74E+00
			23.00		397.14E+00
			23.50		396.62E+00
			24.00		395.89E+00
			24.50		395.28E+00
			25.00		394.71E+00
			25.50		394.16E+00
			26.00		393.56E+00
			26.50		392.96E+00
			27.00		392.44E+00
			27.50		391.92E+00
			28.00		391.50E+00
			28.50		390.95E+00
			29.00		390.37E+00
			29.50		389.55E+00
			30.00		388.84E+00
			30.50		388.06E+00
			31.00		387.36E+00
			31.50		386.83E+00
			32.00		386.38E+00
			32.50		385.68E+00
			33.00		384.87E+00
			33.50		384.31E+00
			34.00		383.57E+00
			34.50		382.92E+00
			35.00		382.21E+00
			35.50		381.50E+00
			36.00		380.67E+00
			36.50		379.76E+00
			37.00		379.02E+00
			37.50		378.21E+00
			38.00		377.35E+00
			38.50		376.53E+00
			39.00		375.87E+00
			39.50		375.18E+00
			40.00		374.50E+00
			40.50		373.72E+00
			41.00		372.83E+00
			41.50		371.99E+00
			42.00		371.30E+00
			42.50		370.50E+00
			43.00		369.61E+00
			43.50		368.66E+00
			44.00		367.95E+00
			44.50		367.14E+00
			45.00		366.25E+00
			45.50		365.41E+00
			46.00		364.53E+00
			46.50		363.45E+00
			47.00		362.62E+00
			47.50		361.73E+00
			48.00		360.86E+00
			48.50		359.98E+00
			49.00		358.99E+00
			49.50		358.15E+00
			50.00		357.28E+00
			50.50		356.42E+00
			51.00		355.43E+00
			51.50		354.50E+00
			52.00		353.47E+00
			52.50		352.43E+00
			53.00		351.55E+00
			53.50		350.69E+00
			54.00		349.80E+00
			54.50		348.95E+00
			55.00		347.96E+00
			55.50		346.88E+00
			56.00		345.79E+00
			56.50		344.88E+00
			57.00		344.01E+00
			57.50		342.69E+00
			58.00		341.58E+00
			58.50		340.65E+00
			59.00		339.67E+00
			59.50		338.57E+00
			60.00		337.39E+00
			60.50		336.28E+00
			61.00		335.21E+00
			61.50		333.91E+00
			62.00		332.44E+00
			62.50		330.91E+00
			63.00		329.87E+00
			63.50		328.85E+00
			64.00		327.49E+00
			64.50		326.11E+00
			65.00		324.43E+00
			65.50		322.88E+00
			66.00		321.09E+00
			66.50		319.17E+00
			67.00		316.72E+00
			67.50		313.94E+00
			68.00		311.13E+00
			68.50		307.99E+00
			69.00		304.27E+00
			69.50		299.67E+00
			70.00		294.25E+00
			70.50		287.30E+00
			71.00		279.34E+00
			71.50		269.26E+00
			72.00		258.23E+00
			72.50		244.97E+00
			73.00		230.42E+00
			73.50		214.71E+00
			74.00		198.27E+00
			74.50		181.43E+00
			75.00		164.52E+00
			75.50		147.60E+00
			76.00		131.32E+00
			76.50		115.73E+00
			77.00		101.53E+00
			77.50		88.201E+00
			78.00		77.073E+00
			78.50		67.125E+00
			79.00		59.462E+00
			79.50		52.994E+00
			80.00		48.100E+00
			80.50		44.348E+00
			81.00		41.231E+00
			81.50		38.989E+00
			82.00		37.039E+00
			82.50		35.370E+00
			83.00		34.109E+00
			83.50		32.778E+00
			84.00		31.652E+00
			84.50		30.730E+00
			85.00		29.783E+00
			85.50		29.005E+00
			86.00		28.232E+00
			86.50		27.495E+00
			87.00		26.936E+00
			87.50		26.398E+00
			88.00		25.679E+00
			88.50		25.165E+00
			89.00		24.726E+00
			89.50		24.105E+00
			90.00		23.511E+00
			90.50		23.205E+00
			91.00		22.728E+00
			91.50		22.311E+00
			92.00		21.779E+00
			92.50		21.440E+00
			93.00		21.237E+00
			93.50		20.936E+00
			94.00		20.604E+00
			94.50		20.119E+00
			95.00		19.702E+00
			95.50		19.529E+00
			96.00		19.101E+00
			96.50		18.928E+00
			97.00		18.706E+00
			97.50		18.176E+00
			98.00		17.940E+00
			98.50		17.714E+00
			99.00		17.540E+00
			99.50		17.266E+00
			100.00		16.975E+00
			100.50		16.722E+00
			101.00		16.419E+00
			101.50		16.241E+00
			102.00		16.027E+00
			102.50		15.844E+00
			103.00		15.634E+00
			103.50		15.433E+00
			104.00		15.244E+00
			104.50		15.024E+00
			105.00		14.837E+00
			105.50		14.627E+00
			106.00		14.459E+00
			106.50		14.238E+00
			107.00		14.112E+00
			107.50		13.992E+00
			108.00		13.942E+00
			108.50		13.776E+00
			109.00		13.375E+00
			109.50		13.318E+00
			110.00		13.194E+00
		END_DATA
	END_SCAN  2
	BEGIN_SCAN  3
		TASK_NAME=tba PDD Profiles
		PROGRAM=WaterTankScans
		COMMENT=Mater Olbia
		MEAS_DATE=10-Mar-2022 18:57:15
		LINAC=MRIdian
		MODALITY=X
		ISOCENTER=900.00
		INPLANE_AXIS=Y
		CROSSPLANE_AXIS=X
		DEPTH_AXIS=Depth
		INPLANE_AXIS_DIR=TARGET_GUN
		CROSSPLANE_AXIS_DIR=LEFT_RIGHT
		DEPTH_AXIS_DIR=UP_DOWN
		ENERGY=6.00
		NOMINAL_DMAX=15.00
		SSD=850.00
		SCD=450.00
		WEDGE_ANGLE=0.00
		FIELD_INPLANE=149.40
		FIELD_CROSSPLANE=149.40
		FIELD_TYPE=RECTANGULAR
		GANTRY=0.00
		GANTRY_UPRIGHT_POSITION=0
		GANTRY_ROTATION=CW
		COLL_ANGLE=0.00
		COLL_OFFSET_INPLANE=0.00
		COLL_OFFSET_CROSSPLANE=0.00
		SCAN_DEVICE=BeamScan
		SCAN_DEVICE_SETUP=BARA_LEFT_RIGHT
		ELECTROMETER=BeamScan
		RANGE_FIELD=LOW
		RANGE_REFERENCE=MEDIUM
		DETECTOR=THIMBLE_CHAMBER
		DETECTOR_RADIUS=2.40
		DETECTOR_NAME=A28MR
		DETECTOR_SN=-
		DETECTOR_CALIBRATION=588000000.00
		DETECTOR_IS_CALIBRATED=0
		DETECTOR_REFERENCE=THIMBLE_CHAMBER
		DETECTOR_REFERENCE_RADIUS=2.75
		DETECTOR_REFERENCE_NAME=A28MR
		DETECTOR_REFERENCE_SN=—
		DETECTOR_REFERENCE_IS_CALIBRATED=0
		DETECTOR_REFERENCE_CALIBRATION=303000000.00
		DETECTOR_HV=300.0
		DETECTOR_REFERENCE_HV=300.0
		DETECTOR_ORIENTATION=HORIZONTAL
		FILTER=FFF
		SCAN_SPEED_PROFILE=10.00
		SCAN_PROF_SPEED_DEP=DEPTH
		SCAN_SPEED_PDD=0.00
		SCAN_PDD_SPEED_DEP=ENERGY
		DETECTOR_TYPE=A28MR
		REF_FIELD_DEPTH=220.00
		REF_FIELD_DEFINED=ISOCENTER
		REF_FIELD_INPLANE=100.00
		REF_FIELD_CROSSPLANE=100.00
		REF_SCAN_POSITIONS=-85.00;-84.00;-83.00;-82.00;-81.00;-80.00;-79.00;-78.00;-77.00;-76.00;-75.00;-74.00;-73.00;-72.00;-71.00;-70.00;-69.00;-68.00;-67.00;-66.00;-65.00;-64.00;-63.00;-62.00;-61.00;-60.00;-59.00;-58.00;-57.00;-56.00;-55.00;-54.00;-53.00;-52.00;-51.00;-50.00;-49.00;-48.00;-47.00;-46.00;-45.00;-44.00;-43.00;-42.00;-41.00;-40.00;-39.00;-38.00;-37.00;-36.00;-35.00;-34.00;-33.00;-32.00;-31.00;-30.00;-29.00;-28.00;-27.00;-26.00;-25.00;-24.00;-23.00;-22.00;-21.00;-20.00;-19.00;-18.00;-17.00;-16.00;-15.00;-14.00;-13.00;-12.00;-11.00;-10.00;-9.00;-8.00;-7.00;-6.00;-5.00;-4.00;-3.00;-2.00;-1.00;0.00;1.00;2.00;3.00;4.00;5.00;6.00;7.00;8.00;9.00;10.00;11.00;12.00;13.00;14.00;15.00;16.00;17.00;18.00;19.00;20.00;21.00;22.00;23.00;24.00;25.00;26.00;27.00;28.00;29.00;30.00;31.00;32.00;33.00;34.00;35.00;36.00;37.00;38.00;39.00;40.00;41.00;42.00;43.00;44.00;45.00;46.00;47.00;48.00;49.00;50.00;51.00;52.00;53.00;54.00;55.00;56.00;57.00;58.00;59.00;60.00;61.00;62.00;63.00;64.00;65.00;66.00;67.00;68.00;69.00;70.00;71.00;72.00;73.00;74.00;75.00;76.00;77.00;78.00;79.00;80.00;81.00;82.00;83.00;84.00;85.00;
		REF_OVERSCAN_FACTOR=1.00
		SCAN_CURVETYPE=CROSSPLANE_PROFILE
		SCAN_DEPTH=100.00
		SCAN_OFFAXIS_INPLANE=0.00
		SCAN_OFFAXIS_CROSSPLANE=0.00
		SCAN_ANGLE=0.00
		SCAN_DIAGONAL=NOT_DIAGONAL
		SCAN_DIRECTION=POSITIVE
		MEAS_MEDIUM=WATER
		MEAS_PRESET=MEAS_CONTINUOUS_REFERENCE_SCAN
		MEAS_TIME=0.100
		MEAS_UNIT=A.U.
		INCLINATION_ANGLE=0.00
		PRESSURE=1013.25
		TEMPERATURE=20.00
		NORM_TEMPERATURE=20.00
		CORRECTION_FACTOR=1.0000
		EXPECTED_MAX_DOSE_RATE=3.00
		EPOM_DEPTH_SHIFT=0.2
		EPOM_MODE=SHIFT_PROTOCOL
		CORRECTIONS=MODIFIED_CORR;CAX_CORR;ADD_CURVES_CORR;SYMMETRY_CORR;INTERPOLATED_CORR;
		BEGIN_DATA
			-110.00		16.680E+00
			-109.50		16.899E+00
			-109.00		17.087E+00
			-108.50		17.277E+00
			-108.00		17.669E+00
			-107.50		17.873E+00
			-107.00		17.993E+00
			-106.50		18.185E+00
			-106.00		18.302E+00
			-105.50		18.636E+00
			-105.00		18.991E+00
			-104.50		19.187E+00
			-104.00		19.455E+00
			-103.50		19.736E+00
			-103.00		19.971E+00
			-102.50		20.229E+00
			-102.00		20.437E+00
			-101.50		20.743E+00
			-101.00		21.141E+00
			-100.50		21.396E+00
			-100.00		21.740E+00
			-99.50		22.062E+00
			-99.00		22.357E+00
			-98.50		22.669E+00
			-98.00		23.080E+00
			-97.50		23.318E+00
			-97.00		23.572E+00
			-96.50		23.964E+00
			-96.00		24.477E+00
			-95.50		24.901E+00
			-95.00		25.378E+00
			-94.50		25.852E+00
			-94.00		26.125E+00
			-93.50		26.623E+00
			-93.00		27.135E+00
			-92.50		27.495E+00
			-92.00		27.887E+00
			-91.50		28.407E+00
			-91.00		28.936E+00
			-90.50		29.563E+00
			-90.00		30.253E+00
			-89.50		30.972E+00
			-89.00		31.653E+00
			-88.50		32.253E+00
			-88.00		33.036E+00
			-87.50		33.905E+00
			-87.00		34.948E+00
			-86.50		35.917E+00
			-86.00		37.191E+00
			-85.50		38.590E+00
			-85.00		40.375E+00
			-84.50		42.394E+00
			-84.00		45.162E+00
			-83.50		48.374E+00
			-83.00		52.553E+00
			-82.50		57.913E+00
			-82.00		63.975E+00
			-81.50		71.636E+00
			-81.00		80.226E+00
			-80.50		89.747E+00
			-80.00		100.04E+00
			-79.50		111.15E+00
