BEGIN_SCAN_DATA
	FORMAT=CC-Export V1.9                  
	FILE_CREATION_DATE=16-Apr-2022 17:01:51
	LAST_MODIFIED=16-Apr-2022 17:01:51
	BEGIN_SCAN  1
		TASK_NAME=tba PDD Profiles
		PROGRAM=WaterTankScans
		COMMENT=Average
		MEAS_DATE=15-Mar-2022 16:20:23
		LINAC=MRIdian
		MODALITY=X
		ISOCENTER=900.00
		INPLANE_AXIS=Y
		CROSSPLANE_AXIS=X
		DEPTH_AXIS=Depth
		INPLANE_AXIS_DIR=TARGET_GUN
		CROSSPLANE_AXIS_DIR=LEFT_RIGHT
		DEPTH_AXIS_DIR=UP_DOWN
		ENERGY=6.00
		NOMINAL_DMAX=15.00
		SSD=850.00
		SCD=450.00
		WEDGE_ANGLE=0.00
		FIELD_INPLANE=149.00
		FIELD_CROSSPLANE=149.00
		FIELD_TYPE=RECTANGULAR
		GANTRY=0.00
		GANTRY_UPRIGHT_POSITION=0
		GANTRY_ROTATION=CW
		COLL_ANGLE=0.00
		COLL_OFFSET_INPLANE=0.00
		COLL_OFFSET_CROSSPLANE=0.00
		SCAN_DEVICE=BeamScan
		SCAN_DEVICE_SETUP=BARA_LEFT_RIGHT
		ELECTROMETER=BeamScan
		RANGE_FIELD=LOW
		RANGE_REFERENCE=MEDIUM
		DETECTOR=THIMBLE_CHAMBER
		DETECTOR_RADIUS=2.40
		DETECTOR_NAME=A28MR
		DETECTOR_SN=-
		DETECTOR_CALIBRATION=588000000.00
		DETECTOR_IS_CALIBRATED=0
		DETECTOR_REFERENCE=THIMBLE_CHAMBER
		DETECTOR_REFERENCE_RADIUS=2.75
		DETECTOR_REFERENCE_NAME=A28MR
		DETECTOR_REFERENCE_SN=—
		DETECTOR_REFERENCE_IS_CALIBRATED=0
		DETECTOR_REFERENCE_CALIBRATION=303000000.00
		DETECTOR_HV=300.0
		DETECTOR_REFERENCE_HV=300.0
		DETECTOR_ORIENTATION=HORIZONTAL
		FILTER=FFF
		SCAN_SPEED_PROFILE=10.00
		SCAN_PROF_SPEED_DEP=DEPTH
		SCAN_SPEED_PDD=0.00
		SCAN_PDD_SPEED_DEP=ENERGY
		DETECTOR_TYPE=A28MR
		REF_FIELD_DEPTH=50.00
		REF_FIELD_DEFINED=ISOCENTER
		REF_FIELD_INPLANE=100.00
		REF_FIELD_CROSSPLANE=100.00
		REF_SCAN_POSITIONS=-85.00;-84.00;-83.00;-82.00;-81.00;-80.00;-79.00;-78.00;-77.00;-76.00;-75.00;-74.00;-73.00;-72.00;-71.00;-70.00;-69.00;-68.00;-67.00;-66.00;-65.00;-64.00;-63.00;-62.00;-61.00;-60.00;-59.00;-58.00;-57.00;-56.00;-55.00;-54.00;-53.00;-52.00;-51.00;-50.00;-49.00;-48.00;-47.00;-46.00;-45.00;-44.00;-43.00;-42.00;-41.00;-40.00;-39.00;-38.00;-37.00;-36.00;-35.00;-34.00;-33.00;-32.00;-31.00;-30.00;-29.00;-28.00;-27.00;-26.00;-25.00;-24.00;-23.00;-22.00;-21.00;-20.00;-19.00;-18.00;-17.00;-16.00;-15.00;-14.00;-13.00;-12.00;-11.00;-10.00;-9.00;-8.00;-7.00;-6.00;-5.00;-4.00;-3.00;-2.00;-1.00;0.00;1.00;2.00;3.00;4.00;5.00;6.00;7.00;8.00;9.00;10.00;11.00;12.00;13.00;14.00;15.00;16.00;17.00;18.00;19.00;20.00;21.00;22.00;23.00;24.00;25.00;26.00;27.00;28.00;29.00;30.00;31.00;32.00;33.00;34.00;35.00;36.00;37.00;38.00;39.00;40.00;41.00;42.00;43.00;44.00;45.00;46.00;47.00;48.00;49.00;50.00;51.00;52.00;53.00;54.00;55.00;56.00;57.00;58.00;59.00;60.00;61.00;62.00;63.00;64.00;65.00;66.00;67.00;68.00;69.00;70.00;71.00;72.00;73.00;74.00;75.00;76.00;77.00;78.00;79.00;80.00;81.00;82.00;83.00;84.00;85.00;
		REF_OVERSCAN_FACTOR=1.00
		SCAN_CURVETYPE=CROSSPLANE_PROFILE
		SCAN_DEPTH=20.00
		SCAN_OFFAXIS_INPLANE=0.00
		SCAN_OFFAXIS_CROSSPLANE=0.00
		SCAN_ANGLE=0.00
		SCAN_DIAGONAL=NOT_DIAGONAL
		SCAN_DIRECTION=POSITIVE
		MEAS_MEDIUM=WATER
		MEAS_PRESET=MEAS_CONTINUOUS_REFERENCE_SCAN
		MEAS_TIME=0.100
		MEAS_UNIT=A.U.
		INCLINATION_ANGLE=0.00
		PRESSURE=1013.25
		TEMPERATURE=20.00
		NORM_TEMPERATURE=20.00
		CORRECTION_FACTOR=1.0000
		EXPECTED_MAX_DOSE_RATE=3.00
		EPOM_DEPTH_SHIFT=0.2
		EPOM_MODE=SHIFT_PROTOCOL
		CORRECTIONS=CAX_CORR;INTERPOLATED_CORR;SYMMETRY_CORR;ADD_CURVES_CORR;MODIFIED_CORR;
		BEGIN_DATA
			-110.00		9.1218E+00
			-109.50		9.1218E+00
			-109.00		9.5779E+00
			-108.50		9.5779E+00
			-108.00		9.5779E+00
			-107.50		9.5779E+00
			-107.00		9.5779E+00
			-106.50		10.034E+00
			-106.00		10.034E+00
			-105.50		10.034E+00
			-105.00		10.034E+00
			-104.50		10.490E+00
			-104.00		10.490E+00
			-103.50		10.490E+00
			-103.00		10.490E+00
			-102.50		10.946E+00
			-102.00		10.946E+00
			-101.50		10.946E+00
			-101.00		11.402E+00
			-100.50		11.402E+00
			-100.00		11.402E+00
			-99.50		11.858E+00
			-99.00		11.858E+00
			-98.50		11.858E+00
			-98.00		12.314E+00
			-97.50		12.314E+00
			-97.00		12.314E+00
			-96.50		12.771E+00
			-96.00		12.771E+00
			-95.50		13.227E+00
			-95.00		13.227E+00
			-94.50		13.227E+00
			-94.00		13.683E+00
			-93.50		13.683E+00
			-93.00		14.139E+00
			-92.50		14.139E+00
			-92.00		14.595E+00
			-91.50		14.595E+00
			-91.00		15.051E+00
			-90.50		15.051E+00
			-90.00		15.507E+00
			-89.50		15.507E+00
			-89.00		15.963E+00
			-88.50		16.419E+00
			-88.00		16.419E+00
			-87.50		16.875E+00
			-87.00		17.331E+00
			-86.50		17.788E+00
			-86.00		17.788E+00
			-85.50		18.244E+00
			-85.00		18.700E+00
			-84.50		19.156E+00
			-84.00		19.612E+00
			-83.50		20.524E+00
			-83.00		20.980E+00
			-82.50		21.436E+00
			-82.00		22.348E+00
			-81.50		22.804E+00
			-81.00		23.717E+00
			-80.50		24.629E+00
			-80.00		25.997E+00
			-79.50		27.365E+00
			-79.00		28.734E+00
			-78.50		31.014E+00
			-78.00		33.295E+00
			-77.50		36.487E+00
			-77.00		40.592E+00
			-76.50		46.521E+00
			-76.00		53.363E+00
			-75.50		63.853E+00
			-75.00		75.255E+00
			-74.50		90.306E+00
			-74.00		106.27E+00
			-73.50		124.97E+00
			-73.00		145.04E+00
			-72.50		166.02E+00
			-72.00		187.00E+00
			-71.50		208.43E+00
			-71.00		229.41E+00
			-70.50		249.48E+00
			-70.00		268.64E+00
			-69.50		285.51E+00
			-69.00		301.02E+00
			-68.50		313.33E+00
			-68.00		324.28E+00
			-67.50		332.49E+00
			-67.00		339.33E+00
			-66.50		344.80E+00
			-66.00		349.36E+00
			-65.50		353.01E+00
			-65.00		356.21E+00
			-64.50		358.94E+00
			-64.00		361.22E+00
			-63.50		363.05E+00
			-63.00		365.33E+00
			-62.50		367.15E+00
			-62.00		368.98E+00
			-61.50		370.35E+00
			-61.00		371.71E+00
			-60.50		373.08E+00
			-60.00		374.45E+00
			-59.50		375.36E+00
			-59.00		376.73E+00
			-58.50		378.10E+00
			-58.00		379.47E+00
			-57.50		380.38E+00
			-57.00		381.75E+00
			-56.50		382.66E+00
			-56.00		383.57E+00
			-55.50		384.94E+00
			-55.00		386.31E+00
			-54.50		386.76E+00
			-54.00		387.68E+00
			-53.50		388.59E+00
			-53.00		389.96E+00
			-52.50		390.87E+00
			-52.00		392.24E+00
			-51.50		393.15E+00
			-51.00		394.06E+00
			-50.50		395.43E+00
			-50.00		396.34E+00
			-49.50		397.25E+00
			-49.00		398.17E+00
			-48.50		399.08E+00
			-48.00		399.53E+00
			-47.50		400.45E+00
			-47.00		401.82E+00
			-46.50		402.73E+00
			-46.00		404.10E+00
			-45.50		405.01E+00
			-45.00		405.46E+00
			-44.50		406.38E+00
			-44.00		407.29E+00
			-43.50		408.20E+00
			-43.00		409.11E+00
			-42.50		410.02E+00
			-42.00		410.94E+00
			-41.50		411.85E+00
			-41.00		412.76E+00
			-40.50		413.67E+00
			-40.00		414.59E+00
			-39.50		415.50E+00
			-39.00		416.41E+00
			-38.50		417.32E+00
			-38.00		417.78E+00
			-37.50		418.69E+00
			-37.00		419.60E+00
			-36.50		420.51E+00
			-36.00		421.43E+00
			-35.50		422.34E+00
			-35.00		422.80E+00
			-34.50		423.71E+00
			-34.00		424.62E+00
			-33.50		425.53E+00
			-33.00		425.99E+00
			-32.50		426.90E+00
			-32.00		427.81E+00
			-31.50		428.72E+00
			-31.00		429.18E+00
			-30.50		430.09E+00
			-30.00		430.55E+00
			-29.50		431.46E+00
			-29.00		431.92E+00
			-28.50		432.83E+00
			-28.00		433.29E+00
			-27.50		434.20E+00
			-27.00		435.11E+00
			-26.50		436.02E+00
			-26.00		436.48E+00
			-25.50		436.93E+00
			-25.00		437.85E+00
			-24.50		438.30E+00
			-24.00		439.21E+00
			-23.50		439.67E+00
			-23.00		440.13E+00
			-22.50		441.04E+00
			-22.00		441.50E+00
			-21.50		441.95E+00
			-21.00		442.41E+00
			-20.50		443.32E+00
			-20.00		443.78E+00
			-19.50		444.23E+00
			-19.00		444.69E+00
			-18.50		445.60E+00
			-18.00		446.06E+00
			-17.50		446.51E+00
			-17.00		446.97E+00
			-16.50		447.42E+00
			-16.00		447.88E+00
			-15.50		448.34E+00
			-15.00		448.79E+00
			-14.50		449.25E+00
			-14.00		449.70E+00
			-13.50		449.70E+00
			-13.00		450.16E+00
			-12.50		450.62E+00
			-12.00		451.07E+00
			-11.50		451.07E+00
			-11.00		451.53E+00
			-10.50		451.99E+00
			-10.00		452.44E+00
			-9.50		452.44E+00
			-9.00		452.90E+00
			-8.50		452.90E+00
			-8.00		453.35E+00
			-7.50		453.35E+00
			-7.00		453.81E+00
			-6.50		454.27E+00
			-6.00		454.27E+00
			-5.50		454.72E+00
			-5.00		454.72E+00
			-4.50		455.18E+00
			-4.00		455.18E+00
			-3.50		455.63E+00
			-3.00		455.63E+00
			-2.50		455.63E+00
			-2.00		455.63E+00
			-1.50		455.63E+00
			-1.00		455.63E+00
			-0.50		456.09E+00
			0.00		456.09E+00
			0.50		456.09E+00
			1.00		455.63E+00
			1.50		455.63E+00
			2.00		455.63E+00
			2.50		455.63E+00
			3.00		455.63E+00
			3.50		455.63E+00
			4.00		455.18E+00
			4.50		455.18E+00
			5.00		454.72E+00
			5.50		454.72E+00
			6.00		454.27E+00
			6.50		454.27E+00
			7.00		453.81E+00
			7.50		453.35E+00
			8.00		453.35E+00
			8.50		452.90E+00
			9.00		452.90E+00
			9.50		452.44E+00
			10.00		452.44E+00
			10.50		451.99E+00
			11.00		451.53E+00
			11.50		451.07E+00
			12.00		451.07E+00
			12.50		450.62E+00
			13.00		450.16E+00
			13.50		449.70E+00
			14.00		449.70E+00
			14.50		449.25E+00
			15.00		448.79E+00
			15.50		448.34E+00
			16.00		447.88E+00
			16.50		447.42E+00
			17.00		446.97E+00
			17.50		446.51E+00
			18.00		446.06E+00
			18.50		445.60E+00
			19.00		444.69E+00
			19.50		444.23E+00
			20.00		443.78E+00
			20.50		443.32E+00
			21.00		442.41E+00
			21.50		441.95E+00
			22.00		441.50E+00
			22.50		441.04E+00
			23.00		440.13E+00
			23.50		439.67E+00
			24.00		439.21E+00
			24.50		438.30E+00
			25.00		437.85E+00
			25.50		436.93E+00
			26.00		436.48E+00
			26.50		436.02E+00
			27.00		435.11E+00
			27.50		434.20E+00
			28.00		433.29E+00
			28.50		432.83E+00
			29.00		431.92E+00
			29.50		431.46E+00
			30.00		430.55E+00
			30.50		430.09E+00
			31.00		429.18E+00
			31.50		428.72E+00
			32.00		427.81E+00
			32.50		426.90E+00
			33.00		425.99E+00
			33.50		425.53E+00
			34.00		424.62E+00
			34.50		423.71E+00
			35.00		422.80E+00
			35.50		422.34E+00
			36.00		421.43E+00
			36.50		420.51E+00
			37.00		419.60E+00
			37.50		418.69E+00
			38.00		417.78E+00
			38.50		417.32E+00
			39.00		416.41E+00
			39.50		415.50E+00
			40.00		414.59E+00
			40.50		413.67E+00
			41.00		412.76E+00
			41.50		411.85E+00
			42.00		410.94E+00
			42.50		410.02E+00
			43.00		409.11E+00
			43.50		408.20E+00
			44.00		407.29E+00
			44.50		406.38E+00
			45.00		405.46E+00
			45.50		405.01E+00
			46.00		404.10E+00
			46.50		402.73E+00
			47.00		401.82E+00
			47.50		400.45E+00
			48.00		399.53E+00
			48.50		399.08E+00
			49.00		398.17E+00
			49.50		397.25E+00
			50.00		396.34E+00
			50.50		395.43E+00
			51.00		394.06E+00
			51.50		393.15E+00
			52.00		392.24E+00
			52.50		390.87E+00
			53.00		389.96E+00
			53.50		388.59E+00
			54.00		387.68E+00
			54.50		386.76E+00
			55.00		386.31E+00
			55.50		384.94E+00
			56.00		383.57E+00
			56.50		382.66E+00
			57.00		381.75E+00
			57.50		380.38E+00
			58.00		379.47E+00
			58.50		378.10E+00
			59.00		376.73E+00
			59.50		375.36E+00
			60.00		374.45E+00
			60.50		373.08E+00
			61.00		371.71E+00
			61.50		370.35E+00
			62.00		368.98E+00
			62.50		367.15E+00
			63.00		365.33E+00
			63.50		363.05E+00
			64.00		361.22E+00
			64.50		358.94E+00
			65.00		356.21E+00
			65.50		353.01E+00
			66.00		349.36E+00
			66.50		344.80E+00
			67.00		339.33E+00
			67.50		332.49E+00
			68.00		324.28E+00
			68.50		313.33E+00
			69.00		301.02E+00
			69.50		285.51E+00
			70.00		268.64E+00
			70.50		249.48E+00
			71.00		229.41E+00
			71.50		208.43E+00
			72.00		187.00E+00
			72.50		166.02E+00
			73.00		145.04E+00
			73.50		124.97E+00
			74.00		106.27E+00
			74.50		90.306E+00
			75.00		75.255E+00
			75.50		63.853E+00
			76.00		53.363E+00
			76.50		46.521E+00
			77.00		40.592E+00
			77.50		36.487E+00
			78.00		33.295E+00
			78.50		31.014E+00
			79.00		28.734E+00
			79.50		27.365E+00
			80.00		25.997E+00
			80.50		24.629E+00
			81.00		23.717E+00
			81.50		22.804E+00
			82.00		22.348E+00
			82.50		21.436E+00
			83.00		20.980E+00
			83.50		20.524E+00
			84.00		19.612E+00
			84.50		19.156E+00
			85.00		18.700E+00
			85.50		18.244E+00
			86.00		17.788E+00
			86.50		17.788E+00
			87.00		17.331E+00
			87.50		16.875E+00
			88.00		16.419E+00
			88.50		16.419E+00
			89.00		15.963E+00
			89.50		15.507E+00
			90.00		15.507E+00
			90.50		15.051E+00
			91.00		15.051E+00
			91.50		14.595E+00
			92.00		14.595E+00
			92.50		14.139E+00
			93.00		14.139E+00
			93.50		13.683E+00
			94.00		13.683E+00
			94.50		13.227E+00
			95.00		13.227E+00
			95.50		13.227E+00
			96.00		12.771E+00
			96.50		12.771E+00
			97.00		12.314E+00
			97.50		12.314E+00
			98.00		12.314E+00
			98.50		11.858E+00
			99.00		11.858E+00
			99.50		11.858E+00
			100.00		11.402E+00
			100.50		11.402E+00
			101.00		11.402E+00
			101.50		10.946E+00
			102.00		10.946E+00
			102.50		10.946E+00
			103.00		10.490E+00
			103.50		10.490E+00
			104.00		10.490E+00
			104.50		10.490E+00
			105.00		10.034E+00
			105.50		10.034E+00
			106.00		10.034E+00
			106.50		10.034E+00
			107.00		9.5779E+00
			107.50		9.5779E+00
			108.00		9.5779E+00
			108.50		9.5779E+00
			109.00		9.5779E+00
			109.50		9.1218E+00
			110.00		9.1218E+00
		END_DATA
	END_SCAN  1
	BEGIN_SCAN  2
		TASK_NAME=tba PDD Profiles
		PROGRAM=WaterTankScans
		COMMENT=Average
		MEAS_DATE=15-Mar-2022 16:20:50
		LINAC=MRIdian
		MODALITY=X
		ISOCENTER=900.00
		INPLANE_AXIS=Y
		CROSSPLANE_AXIS=X
		DEPTH_AXIS=Depth
		INPLANE_AXIS_DIR=TARGET_GUN
		CROSSPLANE_AXIS_DIR=LEFT_RIGHT
		DEPTH_AXIS_DIR=UP_DOWN
		ENERGY=6.00
		NOMINAL_DMAX=15.00
		SSD=850.00
		SCD=450.00
		WEDGE_ANGLE=0.00
		FIELD_INPLANE=149.00
		FIELD_CROSSPLANE=149.00
		FIELD_TYPE=RECTANGULAR
		GANTRY=0.00
		GANTRY_UPRIGHT_POSITION=0
		GANTRY_ROTATION=CW
		COLL_ANGLE=0.00
		COLL_OFFSET_INPLANE=0.00
		COLL_OFFSET_CROSSPLANE=0.00
		SCAN_DEVICE=BeamScan
		SCAN_DEVICE_SETUP=BARA_LEFT_RIGHT
		ELECTROMETER=BeamScan
		RANGE_FIELD=LOW
		RANGE_REFERENCE=MEDIUM
		DETECTOR=THIMBLE_CHAMBER
		DETECTOR_RADIUS=2.40
		DETECTOR_NAME=A28MR
		DETECTOR_SN=-
		DETECTOR_CALIBRATION=588000000.00
		DETECTOR_IS_CALIBRATED=0
		DETECTOR_REFERENCE=THIMBLE_CHAMBER
		DETECTOR_REFERENCE_RADIUS=2.75
		DETECTOR_REFERENCE_NAME=A28MR
		DETECTOR_REFERENCE_SN=—
		DETECTOR_REFERENCE_IS_CALIBRATED=0
		DETECTOR_REFERENCE_CALIBRATION=303000000.00
		DETECTOR_HV=300.0
		DETECTOR_REFERENCE_HV=300.0
		DETECTOR_ORIENTATION=HORIZONTAL
		FILTER=FFF
		SCAN_SPEED_PROFILE=10.00
		SCAN_PROF_SPEED_DEP=DEPTH
		SCAN_SPEED_PDD=0.00
		SCAN_PDD_SPEED_DEP=ENERGY
		DETECTOR_TYPE=A28MR
		REF_FIELD_DEPTH=50.00
		REF_FIELD_DEFINED=ISOCENTER
		REF_FIELD_INPLANE=100.00
		REF_FIELD_CROSSPLANE=100.00
		REF_SCAN_POSITIONS=-85.00;-84.00;-83.00;-82.00;-81.00;-80.00;-79.00;-78.00;-77.00;-76.00;-75.00;-74.00;-73.00;-72.00;-71.00;-70.00;-69.00;-68.00;-67.00;-66.00;-65.00;-64.00;-63.00;-62.00;-61.00;-60.00;-59.00;-58.00;-57.00;-56.00;-55.00;-54.00;-53.00;-52.00;-51.00;-50.00;-49.00;-48.00;-47.00;-46.00;-45.00;-44.00;-43.00;-42.00;-41.00;-40.00;-39.00;-38.00;-37.00;-36.00;-35.00;-34.00;-33.00;-32.00;-31.00;-30.00;-29.00;-28.00;-27.00;-26.00;-25.00;-24.00;-23.00;-22.00;-21.00;-20.00;-19.00;-18.00;-17.00;-16.00;-15.00;-14.00;-13.00;-12.00;-11.00;-10.00;-9.00;-8.00;-7.00;-6.00;-5.00;-4.00;-3.00;-2.00;-1.00;0.00;1.00;2.00;3.00;4.00;5.00;6.00;7.00;8.00;9.00;10.00;11.00;12.00;13.00;14.00;15.00;16.00;17.00;18.00;19.00;20.00;21.00;22.00;23.00;24.00;25.00;26.00;27.00;28.00;29.00;30.00;31.00;32.00;33.00;34.00;35.00;36.00;37.00;38.00;39.00;40.00;41.00;42.00;43.00;44.00;45.00;46.00;47.00;48.00;49.00;50.00;51.00;52.00;53.00;54.00;55.00;56.00;57.00;58.00;59.00;60.00;61.00;62.00;63.00;64.00;65.00;66.00;67.00;68.00;69.00;70.00;71.00;72.00;73.00;74.00;75.00;76.00;77.00;78.00;79.00;80.00;81.00;82.00;83.00;84.00;85.00;
		REF_OVERSCAN_FACTOR=1.00
		SCAN_CURVETYPE=CROSSPLANE_PROFILE
		SCAN_DEPTH=55.00
		SCAN_OFFAXIS_INPLANE=0.00
		SCAN_OFFAXIS_CROSSPLANE=0.00
		SCAN_ANGLE=0.00
		SCAN_DIAGONAL=NOT_DIAGONAL
		SCAN_DIRECTION=POSITIVE
		MEAS_MEDIUM=WATER
		MEAS_PRESET=MEAS_CONTINUOUS_REFERENCE_SCAN
		MEAS_TIME=0.100
		MEAS_UNIT=A.U.
		INCLINATION_ANGLE=0.00
		PRESSURE=1013.25
		TEMPERATURE=20.00
		NORM_TEMPERATURE=20.00
		CORRECTION_FACTOR=1.0000
		EXPECTED_MAX_DOSE_RATE=3.00
		EPOM_DEPTH_SHIFT=0.2
		EPOM_MODE=SHIFT_PROTOCOL
		CORRECTIONS=CAX_CORR;INTERPOLATED_CORR;SYMMETRY_CORR;ADD_CURVES_CORR;MODIFIED_CORR;
		BEGIN_DATA
			-110.00		13.227E+00
			-109.50		13.227E+00
			-109.00		13.683E+00
			-108.50		13.683E+00
			-108.00		14.139E+00
			-107.50		14.139E+00
			-107.00		14.139E+00
			-106.50		14.139E+00
			-106.00		14.595E+00
			-105.50		14.595E+00
			-105.00		15.051E+00
			-104.50		15.051E+00
			-104.00		15.507E+00
			-103.50		15.507E+00
			-103.00		15.507E+00
			-102.50		15.963E+00
			-102.00		15.963E+00
			-101.50		16.419E+00
			-101.00		16.419E+00
			-100.50		16.875E+00
			-100.00		16.875E+00
			-99.50		17.331E+00
			-99.00		17.788E+00
			-98.50		17.788E+00
			-98.00		18.244E+00
			-97.50		18.244E+00
			-97.00		18.700E+00
			-96.50		19.156E+00
			-96.00		19.156E+00
			-95.50		19.612E+00
			-95.00		20.068E+00
			-94.50		20.068E+00
			-94.00		20.524E+00
			-93.50		20.980E+00
			-93.00		21.436E+00
			-92.50		21.436E+00
			-92.00		21.892E+00
			-91.50		22.348E+00
			-91.00		22.804E+00
			-90.50		23.261E+00
			-90.00		23.717E+00
			-89.50		24.173E+00
			-89.00		24.629E+00
			-88.50		25.085E+00
			-88.00		25.541E+00
			-87.50		26.453E+00
			-87.00		26.909E+00
			-86.50		27.365E+00
			-86.00		28.278E+00
			-85.50		28.734E+00
			-85.00		29.646E+00
			-84.50		30.558E+00
			-84.00		31.470E+00
			-83.50		32.382E+00
			-83.00		33.751E+00
			-82.50		35.119E+00
			-82.00		36.487E+00
			-81.50		38.312E+00
			-81.00		40.592E+00
			-80.50		43.329E+00
			-80.00		46.521E+00
			-79.50		51.082E+00
			-79.00		57.011E+00
			-78.50		64.765E+00
			-78.00		74.343E+00
			-77.50		85.745E+00
			-77.00		98.515E+00
			-76.50		113.11E+00
			-76.00		128.62E+00
			-75.50		145.04E+00
			-75.00		162.37E+00
			-74.50		179.70E+00
			-74.00		197.03E+00
			-73.50		213.91E+00
			-73.00		230.33E+00
			-72.50		245.38E+00
			-72.00		259.52E+00
			-71.50		271.37E+00
			-71.00		282.32E+00
			-70.50		290.53E+00
			-70.00		297.83E+00
			-69.50		303.76E+00
			-69.00		308.32E+00
			-68.50		312.42E+00
			-68.00		315.61E+00
			-67.50		318.81E+00
			-67.00		321.09E+00
			-66.50		323.37E+00
			-66.00		325.19E+00
			-65.50		327.47E+00
			-65.00		329.30E+00
			-64.50		330.67E+00
			-64.00		332.03E+00
			-63.50		333.40E+00
			-63.00		334.77E+00
			-62.50		336.14E+00
			-62.00		337.51E+00
			-61.50		338.87E+00
			-61.00		340.24E+00
			-60.50		341.16E+00
			-60.00		342.07E+00
			-59.50		343.44E+00
			-59.00		344.35E+00
			-58.50		345.26E+00
			-58.00		346.63E+00
			-57.50		348.00E+00
			-57.00		348.91E+00
			-56.50		349.82E+00
			-56.00		350.73E+00
			-55.50		352.10E+00
			-55.00		353.01E+00
			-54.50		353.93E+00
			-54.00		354.84E+00
			-53.50		355.75E+00
			-53.00		356.66E+00
			-52.50		357.57E+00
			-52.00		358.49E+00
			-51.50		359.40E+00
			-51.00		360.77E+00
			-50.50		361.68E+00
			-50.00		362.59E+00
			-49.50		363.50E+00
			-49.00		364.42E+00
			-48.50		365.33E+00
			-48.00		366.24E+00
			-47.50		367.15E+00
			-47.00		367.61E+00
			-46.50		368.52E+00
			-46.00		369.43E+00
			-45.50		370.35E+00
			-45.00		371.26E+00
			-44.50		372.17E+00
			-44.00		373.08E+00
			-43.50		373.99E+00
			-43.00		374.91E+00
			-42.50		375.82E+00
			-42.00		376.73E+00
			-41.50		377.19E+00
			-41.00		378.10E+00
			-40.50		379.01E+00
			-40.00		379.92E+00
			-39.50		380.84E+00
			-39.00		381.29E+00
			-38.50		382.20E+00
			-38.00		382.66E+00
			-37.50		383.57E+00
			-37.00		384.48E+00
			-36.50		384.94E+00
			-36.00		385.85E+00
			-35.50		386.76E+00
			-35.00		387.22E+00
			-34.50		388.13E+00
			-34.00		388.59E+00
			-33.50		389.50E+00
			-33.00		390.41E+00
			-32.50		390.87E+00
			-32.00		391.33E+00
			-31.50		392.24E+00
			-31.00		392.69E+00
			-30.50		393.61E+00
			-30.00		394.06E+00
			-29.50		394.97E+00
			-29.00		395.43E+00
			-28.50		395.89E+00
			-28.00		396.80E+00
			-27.50		397.25E+00
			-27.00		397.71E+00
			-26.50		398.62E+00
			-26.00		399.08E+00
			-25.50		399.53E+00
			-25.00		400.45E+00
			-24.50		400.90E+00
			-24.00		401.82E+00
			-23.50		402.27E+00
			-23.00		402.73E+00
			-22.50		403.18E+00
			-22.00		403.64E+00
			-21.50		404.10E+00
			-21.00		405.01E+00
			-20.50		405.46E+00
			-20.00		405.92E+00
			-19.50		406.38E+00
			-19.00		406.83E+00
			-18.50		407.29E+00
			-18.00		407.29E+00
			-17.50		408.20E+00
			-17.00		408.20E+00
			-16.50		408.66E+00
			-16.00		409.11E+00
			-15.50		409.57E+00
			-15.00		410.02E+00
			-14.50		410.48E+00
			-14.00		410.48E+00
			-13.50		410.94E+00
			-13.00		411.39E+00
			-12.50		411.85E+00
			-12.00		411.85E+00
			-11.50		412.31E+00
			-11.00		412.31E+00
			-10.50		412.76E+00
			-10.00		412.76E+00
			-9.50		413.22E+00
			-9.00		413.67E+00
			-8.50		413.67E+00
			-8.00		414.13E+00
			-7.50		414.13E+00
			-7.00		414.59E+00
			-6.50		414.59E+00
			-6.00		414.59E+00
			-5.50		415.04E+00
			-5.00		415.04E+00
			-4.50		415.50E+00
			-4.00		415.50E+00
			-3.50		415.95E+00
			-3.00		415.95E+00
			-2.50		415.95E+00
			-2.00		415.95E+00
			-1.50		415.95E+00
			-1.00		415.95E+00
			-0.50		416.41E+00
			0.00		416.41E+00
			0.50		416.41E+00
			1.00		415.95E+00
			1.50		415.95E+00
			2.00		415.95E+00
			2.50		415.95E+00
			3.00		415.95E+00
			3.50		415.95E+00
			4.00		415.50E+00
			4.50		415.50E+00
			5.00		415.04E+00
			5.50		415.04E+00
			6.00		414.59E+00
			6.50		414.59E+00
			7.00		414.59E+00
			7.50		414.13E+00
			8.00		414.13E+00
			8.50		413.67E+00
			9.00		413.67E+00
			9.50		413.22E+00
			10.00		412.76E+00
			10.50		412.76E+00
			11.00		412.31E+00
			11.50		412.31E+00
			12.00		411.85E+00
			12.50		411.85E+00
			13.00		411.39E+00
			13.50		410.94E+00
			14.00		410.48E+00
			14.50		410.48E+00
			15.00		410.02E+00
			15.50		409.57E+00
			16.00		409.11E+00
			16.50		408.66E+00
			17.00		408.20E+00
			17.50		408.20E+00
			18.00		407.29E+00
			18.50		407.29E+00
			19.00		406.83E+00
			19.50		406.38E+00
			20.00		405.92E+00
			20.50		405.46E+00
			21.00		405.01E+00
			21.50		404.10E+00
			22.00		403.64E+00
			22.50		403.18E+00
			23.00		402.73E+00
			23.50		402.27E+00
			24.00		401.82E+00
			24.50		400.90E+00
			25.00		400.45E+00
			25.50		399.53E+00
			26.00		399.08E+00
			26.50		398.62E+00
			27.00		397.71E+00
			27.50		397.25E+00
			28.00		396.80E+00
			28.50		395.89E+00
			29.00		395.43E+00
			29.50		394.97E+00
			30.00		394.06E+00
			30.50		393.61E+00
			31.00		392.69E+00
			31.50		392.24E+00
			32.00		391.33E+00
			32.50		390.87E+00
			33.00		390.41E+00
			33.50		389.50E+00
			34.00		388.59E+00
			34.50		388.13E+00
			35.00		387.22E+00
			35.50		386.76E+00
			36.00		385.85E+00
			36.50		384.94E+00
			37.00		384.48E+00
			37.50		383.57E+00
			38.00		382.66E+00
			38.50		382.20E+00
			39.00		381.29E+00
			39.50		380.84E+00
			40.00		379.92E+00
			40.50		379.01E+00
			41.00		378.10E+00
			41.50		377.19E+00
			42.00		376.73E+00
			42.50		375.82E+00
			43.00		374.91E+00
			43.50		373.99E+00
			44.00		373.08E+00
			44.50		372.17E+00
			45.00		371.26E+00
			45.50		370.35E+00
			46.00		369.43E+00
			46.50		368.52E+00
			47.00		367.61E+00
			47.50		367.15E+00
			48.00		366.24E+00
			48.50		365.33E+00
			49.00		364.42E+00
			49.50		363.50E+00
			50.00		362.59E+00
			50.50		361.68E+00
			51.00		360.77E+00
			51.50		359.40E+00
			52.00		358.49E+00
			52.50		357.57E+00
			53.00		356.66E+00
			53.50		355.75E+00
			54.00		354.84E+00
			54.50		353.93E+00
			55.00		353.01E+00
			55.50		352.10E+00
			56.00		350.73E+00
			56.50		349.82E+00
			57.00		348.91E+00
			57.50		348.00E+00
			58.00		346.63E+00
			58.50		345.26E+00
			59.00		344.35E+00
			59.50		343.44E+00
			60.00		342.07E+00
			60.50		341.16E+00
			61.00		340.24E+00
			61.50		338.87E+00
			62.00		337.51E+00
			62.50		336.14E+00
			63.00		334.77E+00
			63.50		333.40E+00
			64.00		332.03E+00
			64.50		330.67E+00
			65.00		329.30E+00
			65.50		327.47E+00
			66.00		325.19E+00
			66.50		323.37E+00
			67.00		321.09E+00
			67.50		318.81E+00
			68.00		315.61E+00
			68.50		312.42E+00
			69.00		308.32E+00
			69.50		303.76E+00
			70.00		297.83E+00
			70.50		290.53E+00
			71.00		282.32E+00
			71.50		271.37E+00
			72.00		259.52E+00
			72.50		245.38E+00
			73.00		230.33E+00
			73.50		213.91E+00
			74.00		197.03E+00
			74.50		179.70E+00
			75.00		162.37E+00
			75.50		145.04E+00
			76.00		128.62E+00
			76.50		113.11E+00
			77.00		98.515E+00
			77.50		85.745E+00
			78.00		74.343E+00
			78.50		64.765E+00
			79.00		57.011E+00
			79.50		51.082E+00
			80.00		46.521E+00
			80.50		43.329E+00
			81.00		40.592E+00
			81.50		38.312E+00
			82.00		36.487E+00
			82.50		35.119E+00
			83.00		33.751E+00
			83.50		32.382E+00
			84.00		31.470E+00
			84.50		30.558E+00
			85.00		29.646E+00
			85.50		28.734E+00
			86.00		28.278E+00
			86.50		27.365E+00
			87.00		26.909E+00
			87.50		26.453E+00
			88.00		25.541E+00
			88.50		25.085E+00
			89.00		24.629E+00
			89.50		24.173E+00
			90.00		23.717E+00
			90.50		23.261E+00
			91.00		22.804E+00
			91.50		22.348E+00
			92.00		21.892E+00
			92.50		21.436E+00
			93.00		21.436E+00
			93.50		20.980E+00
			94.00		20.524E+00
			94.50		20.068E+00
			95.00		20.068E+00
			95.50		19.612E+00
			96.00		19.156E+00
			96.50		19.156E+00
			97.00		18.700E+00
			97.50		18.244E+00
			98.00		18.244E+00
			98.50		17.788E+00
			99.00		17.788E+00
			99.50		17.331E+00
			100.00		16.875E+00
			100.50		16.875E+00
			101.00		16.419E+00
			101.50		16.419E+00
			102.00		15.963E+00
			102.50		15.963E+00
			103.00		15.507E+00
			103.50		15.507E+00
			104.00		15.507E+00
			104.50		15.051E+00
			105.00		15.051E+00
			105.50		14.595E+00
			106.00		14.595E+00
			106.50		14.139E+00
			107.00		14.139E+00
			107.50		14.139E+00
			108.00		14.139E+00
			108.50		13.683E+00
			109.00		13.683E+00
			109.50		13.227E+00
			110.00		13.227E+00
		END_DATA
	END_SCAN  2
	BEGIN_SCAN  3
		TASK_NAME=tba PDD Profiles
		PROGRAM=WaterTankScans
		COMMENT=Average
		MEAS_DATE=15-Mar-2022 16:21:15
		LINAC=MRIdian
		MODALITY=X
		ISOCENTER=900.00
		INPLANE_AXIS=Y
		CROSSPLANE_AXIS=X
		DEPTH_AXIS=Depth
		INPLANE_AXIS_DIR=TARGET_GUN
		CROSSPLANE_AXIS_DIR=LEFT_RIGHT
		DEPTH_AXIS_DIR=UP_DOWN
		ENERGY=6.00
		NOMINAL_DMAX=15.00
		SSD=850.00
		SCD=450.00
		WEDGE_ANGLE=0.00
		FIELD_INPLANE=149.00
		FIELD_CROSSPLANE=149.00
		FIELD_TYPE=RECTANGULAR
		GANTRY=0.00
		GANTRY_UPRIGHT_POSITION=0
		GANTRY_ROTATION=CW
		COLL_ANGLE=0.00
		COLL_OFFSET_INPLANE=0.00
		COLL_OFFSET_CROSSPLANE=0.00
		SCAN_DEVICE=BeamScan
		SCAN_DEVICE_SETUP=BARA_LEFT_RIGHT
		ELECTROMETER=BeamScan
		RANGE_FIELD=LOW
		RANGE_REFERENCE=MEDIUM
		DETECTOR=THIMBLE_CHAMBER
		DETECTOR_RADIUS=2.40
		DETECTOR_NAME=A28MR
		DETECTOR_SN=-
		DETECTOR_CALIBRATION=588000000.00
		DETECTOR_IS_CALIBRATED=0
		DETECTOR_REFERENCE=THIMBLE_CHAMBER
		DETECTOR_REFERENCE_RADIUS=2.75
		DETECTOR_REFERENCE_NAME=A28MR
		DETECTOR_REFERENCE_SN=—
		DETECTOR_REFERENCE_IS_CALIBRATED=0
		DETECTOR_REFERENCE_CALIBRATION=303000000.00
		DETECTOR_HV=300.0
		DETECTOR_REFERENCE_HV=300.0
		DETECTOR_ORIENTATION=HORIZONTAL
		FILTER=FFF
		SCAN_SPEED_PROFILE=10.00
		SCAN_PROF_SPEED_DEP=DEPTH
		SCAN_SPEED_PDD=0.00
		SCAN_PDD_SPEED_DEP=ENERGY
		DETECTOR_TYPE=A28MR
		REF_FIELD_DEPTH=50.00
		REF_FIELD_DEFINED=ISOCENTER
		REF_FIELD_INPLANE=100.00
		REF_FIELD_CROSSPLANE=100.00
		REF_SCAN_POSITIONS=-85.00;-84.00;-83.00;-82.00;-81.00;-80.00;-79.00;-78.00;-77.00;-76.00;-75.00;-74.00;-73.00;-72.00;-71.00;-70.00;-69.00;-68.00;-67.00;-66.00;-65.00;-64.00;-63.00;-62.00;-61.00;-60.00;-59.00;-58.00;-57.00;-56.00;-55.00;-54.00;-53.00;-52.00;-51.00;-50.00;-49.00;-48.00;-47.00;-46.00;-45.00;-44.00;-43.00;-42.00;-41.00;-40.00;-39.00;-38.00;-37.00;-36.00;-35.00;-34.00;-33.00;-32.00;-31.00;-30.00;-29.00;-28.00;-27.00;-26.00;-25.00;-24.00;-23.00;-22.00;-21.00;-20.00;-19.00;-18.00;-17.00;-16.00;-15.00;-14.00;-13.00;-12.00;-11.00;-10.00;-9.00;-8.00;-7.00;-6.00;-5.00;-4.00;-3.00;-2.00;-1.00;0.00;1.00;2.00;3.00;4.00;5.00;6.00;7.00;8.00;9.00;10.00;11.00;12.00;13.00;14.00;15.00;16.00;17.00;18.00;19.00;20.00;21.00;22.00;23.00;24.00;25.00;26.00;27.00;28.00;29.00;30.00;31.00;32.00;33.00;34.00;35.00;36.00;37.00;38.00;39.00;40.00;41.00;42.00;43.00;44.00;45.00;46.00;47.00;48.00;49.00;50.00;51.00;52.00;53.00;54.00;55.00;56.00;57.00;58.00;59.00;60.00;61.00;62.00;63.00;64.00;65.00;66.00;67.00;68.00;69.00;70.00;71.00;72.00;73.00;74.00;75.00;76.00;77.00;78.00;79.00;80.00;81.00;82.00;83.00;84.00;85.00;
		REF_OVERSCAN_FACTOR=1.00
		SCAN_CURVETYPE=CROSSPLANE_PROFILE
		SCAN_DEPTH=100.00
		SCAN_OFFAXIS_INPLANE=0.00
		SCAN_OFFAXIS_CROSSPLANE=0.00
		SCAN_ANGLE=0.00
		SCAN_DIAGONAL=NOT_DIAGONAL
		SCAN_DIRECTION=POSITIVE
		MEAS_MEDIUM=WATER
		MEAS_PRESET=MEAS_CONTINUOUS_REFERENCE_SCAN
		MEAS_TIME=0.100
		MEAS_UNIT=A.U.
		INCLINATION_ANGLE=0.00
		PRESSURE=1013.25
		TEMPERATURE=20.00
		NORM_TEMPERATURE=20.00
		CORRECTION_FACTOR=1.0000
		EXPECTED_MAX_DOSE_RATE=3.00
		EPOM_DEPTH_SHIFT=0.2
		EPOM_MODE=SHIFT_PROTOCOL
		CORRECTIONS=CAX_CORR;INTERPOLATED_CORR;SYMMETRY_CORR;ADD_CURVES_CORR;MODIFIED_CORR;
		BEGIN_DATA
			-110.00		16.875E+00
			-109.50		16.875E+00
			-109.00		17.331E+00
			-108.50		17.331E+00
			-108.00		17.788E+00
			-107.50		17.788E+00
			-107.00		18.244E+00
			-106.50		18.244E+00
			-106.00		18.700E+00
			-105.50		18.700E+00
			-105.00		19.156E+00
			-104.50		19.156E+00
			-104.00		19.612E+00
			-103.50		20.068E+00
			-103.00		20.068E+00
			-102.50		20.524E+00
			-102.00		20.524E+00
			-101.50		20.980E+00
			-101.00		21.436E+00
			-100.50		21.436E+00
			-100.00		21.892E+00
			-99.50		22.348E+00
			-99.00		22.348E+00
			-98.50		22.804E+00
			-98.00		23.261E+00
			-97.50		23.261E+00
			-97.00		23.717E+00
			-96.50		24.173E+00
			-96.00		24.629E+00
			-95.50		25.085E+00
			-95.00		25.541E+00
			-94.50		25.997E+00
			-94.00		25.997E+00
			-93.50		26.909E+00
			-93.00		27.365E+00
			-92.50		27.821E+00
			-92.00		28.278E+00
			-91.50		28.734E+00
			-91.00		29.190E+00
			-90.50		29.646E+00
			-90.00		30.102E+00
			-89.50		31.014E+00
			-89.00		31.470E+00
			-88.50		32.382E+00
			-88.00		32.838E+00
			-87.50		33.751E+00
			-87.00		34.663E+00
			-86.50		35.575E+00
			-86.00		36.943E+00
			-85.50		38.312E+00
			-85.00		39.680E+00
			-84.50		41.504E+00
			-84.00		44.241E+00
			-83.50		46.977E+00
			-83.00		51.082E+00
			-82.50		56.099E+00
			-82.00		62.028E+00
			-81.50		69.326E+00
			-81.00		77.991E+00
			-80.50		87.569E+00
			-80.00		98.059E+00
			-79.50		109.01E+00
