BEGIN_SCAN_DATA
	FORMAT=CC-Export V1.9                  
	FILE_CREATION_DATE=11-Mar-2022 18:11:44
	LAST_MODIFIED=11-Mar-2022 18:11:44
	BEGIN_SCAN  1
		TASK_NAME=tba PDD Profiles
		PROGRAM=WaterTankScans
		COMMENT=FBF_SanPietro
		MEAS_DATE=08-Feb-2021 09:38:10
		LINAC=MRIdian
		MODALITY=X
		ISOCENTER=900.00
		INPLANE_AXIS=Y
		CROSSPLANE_AXIS=X
		DEPTH_AXIS=Depth
		INPLANE_AXIS_DIR=TARGET_GUN
		CROSSPLANE_AXIS_DIR=LEFT_RIGHT
		DEPTH_AXIS_DIR=UP_DOWN
		ENERGY=6.00
		NOMINAL_DMAX=15.00
		SSD=850.00
		SCD=450.00
		WEDGE_ANGLE=0.00
		FIELD_INPLANE=149.40
		FIELD_CROSSPLANE=149.40
		FIELD_TYPE=RECTANGULAR
		GANTRY=0.00
		GANTRY_UPRIGHT_POSITION=0
		GANTRY_ROTATION=CW
		COLL_ANGLE=0.00
		COLL_OFFSET_INPLANE=0.00
		COLL_OFFSET_CROSSPLANE=0.00
		SCAN_DEVICE=BeamScan
		SCAN_DEVICE_SETUP=BARA_LEFT_RIGHT
		ELECTROMETER=BeamScan
		RANGE_FIELD=LOW
		RANGE_REFERENCE=MEDIUM
		DETECTOR=THIMBLE_CHAMBER
		DETECTOR_RADIUS=2.40
		DETECTOR_NAME=A28MR
		DETECTOR_SN=-
		DETECTOR_CALIBRATION=588000000.00
		DETECTOR_IS_CALIBRATED=0
		DETECTOR_REFERENCE=THIMBLE_CHAMBER
		DETECTOR_REFERENCE_RADIUS=2.75
		DETECTOR_REFERENCE_NAME=A28MR
		DETECTOR_REFERENCE_SN=—
		DETECTOR_REFERENCE_IS_CALIBRATED=0
		DETECTOR_REFERENCE_CALIBRATION=303000000.00
		DETECTOR_HV=300.0
		DETECTOR_REFERENCE_HV=300.0
		DETECTOR_ORIENTATION=HORIZONTAL
		FILTER=FFF
		SCAN_SPEED_PROFILE=10.00
		SCAN_PROF_SPEED_DEP=DEPTH
		SCAN_SPEED_PDD=0.00
		SCAN_PDD_SPEED_DEP=ENERGY
		DETECTOR_TYPE=A28MR
		REF_FIELD_DEPTH=220.00
		REF_FIELD_DEFINED=ISOCENTER
		REF_FIELD_INPLANE=100.00
		REF_FIELD_CROSSPLANE=100.00
		REF_SCAN_POSITIONS=-85.00;-84.00;-83.00;-82.00;-81.00;-80.00;-79.00;-78.00;-77.00;-76.00;-75.00;-74.00;-73.00;-72.00;-71.00;-70.00;-69.00;-68.00;-67.00;-66.00;-65.00;-64.00;-63.00;-62.00;-61.00;-60.00;-59.00;-58.00;-57.00;-56.00;-55.00;-54.00;-53.00;-52.00;-51.00;-50.00;-49.00;-48.00;-47.00;-46.00;-45.00;-44.00;-43.00;-42.00;-41.00;-40.00;-39.00;-38.00;-37.00;-36.00;-35.00;-34.00;-33.00;-32.00;-31.00;-30.00;-29.00;-28.00;-27.00;-26.00;-25.00;-24.00;-23.00;-22.00;-21.00;-20.00;-19.00;-18.00;-17.00;-16.00;-15.00;-14.00;-13.00;-12.00;-11.00;-10.00;-9.00;-8.00;-7.00;-6.00;-5.00;-4.00;-3.00;-2.00;-1.00;0.00;1.00;2.00;3.00;4.00;5.00;6.00;7.00;8.00;9.00;10.00;11.00;12.00;13.00;14.00;15.00;16.00;17.00;18.00;19.00;20.00;21.00;22.00;23.00;24.00;25.00;26.00;27.00;28.00;29.00;30.00;31.00;32.00;33.00;34.00;35.00;36.00;37.00;38.00;39.00;40.00;41.00;42.00;43.00;44.00;45.00;46.00;47.00;48.00;49.00;50.00;51.00;52.00;53.00;54.00;55.00;56.00;57.00;58.00;59.00;60.00;61.00;62.00;63.00;64.00;65.00;66.00;67.00;68.00;69.00;70.00;71.00;72.00;73.00;74.00;75.00;76.00;77.00;78.00;79.00;80.00;81.00;82.00;83.00;84.00;85.00;
		REF_OVERSCAN_FACTOR=1.00
		SCAN_CURVETYPE=CROSSPLANE_PROFILE
		SCAN_DEPTH=20.00
		SCAN_OFFAXIS_INPLANE=0.00
		SCAN_OFFAXIS_CROSSPLANE=0.00
		SCAN_ANGLE=0.00
		SCAN_DIAGONAL=NOT_DIAGONAL
		SCAN_DIRECTION=POSITIVE
		MEAS_MEDIUM=WATER
		MEAS_PRESET=MEAS_CONTINUOUS_REFERENCE_SCAN
		MEAS_TIME=0.100
		MEAS_UNIT=A.U.
		INCLINATION_ANGLE=0.00
		PRESSURE=1013.25
		TEMPERATURE=20.00
		NORM_TEMPERATURE=20.00
		CORRECTION_FACTOR=1.0000
		EXPECTED_MAX_DOSE_RATE=3.00
		EPOM_DEPTH_SHIFT=0.2
		EPOM_MODE=SHIFT_PROTOCOL
		CORRECTIONS=CAX_CORR;INTERPOLATED_CORR;SYMMETRY_CORR;
		BEGIN_DATA
			-120.00		7.9292E+00
			-119.50		8.0345E+00
			-119.00		8.1395E+00
			-118.50		8.1990E+00
			-118.00		8.2428E+00
			-117.50		8.2922E+00
			-117.00		8.3587E+00
			-116.50		8.4289E+00
			-116.00		8.4930E+00
			-115.50		8.5965E+00
			-115.00		8.7074E+00
			-114.50		8.7675E+00
			-114.00		8.8274E+00
			-113.50		8.9319E+00
			-113.00		9.0378E+00
			-112.50		9.1532E+00
			-112.00		9.2675E+00
			-111.50		9.3556E+00
			-111.00		9.4461E+00
			-110.50		9.5596E+00
			-110.00		9.6756E+00
			-109.50		9.7635E+00
			-109.00		9.8463E+00
			-108.50		9.9388E+00
			-108.00		10.038E+00
			-107.50		10.150E+00
			-107.00		10.252E+00
			-106.50		10.354E+00
			-106.00		10.479E+00
			-105.50		10.623E+00
			-105.00		10.751E+00
			-104.50		10.852E+00
			-104.00		10.969E+00
			-103.50		11.116E+00
			-103.00		11.254E+00
			-102.50		11.413E+00
			-102.00		11.591E+00
			-101.50		11.740E+00
			-101.00		11.863E+00
			-100.50		11.973E+00
			-100.00		12.094E+00
			-99.50		12.221E+00
			-99.00		12.357E+00
			-98.50		12.569E+00
			-98.00		12.782E+00
			-97.50		12.958E+00
			-97.00		13.139E+00
			-96.50		13.340E+00
			-96.00		13.538E+00
			-95.50		13.725E+00
			-95.00		13.901E+00
			-94.50		14.059E+00
			-94.00		14.229E+00
			-93.50		14.416E+00
			-93.00		14.613E+00
			-92.50		14.904E+00
			-92.00		15.208E+00
			-91.50		15.528E+00
			-91.00		15.836E+00
			-90.50		16.038E+00
			-90.00		16.243E+00
			-89.50		16.494E+00
			-89.00		16.739E+00
			-88.50		17.073E+00
			-88.00		17.431E+00
			-87.50		17.772E+00
			-87.00		18.117E+00
			-86.50		18.547E+00
			-86.00		18.982E+00
			-85.50		19.416E+00
			-85.00		19.858E+00
			-84.50		20.331E+00
			-84.00		20.811E+00
			-83.50		21.372E+00
			-83.00		21.959E+00
			-82.50		22.702E+00
			-82.00		23.487E+00
			-81.50		24.306E+00
			-81.00		25.139E+00
			-80.50		26.264E+00
			-80.00		27.458E+00
			-79.50		28.860E+00
			-79.00		30.372E+00
			-78.50		32.506E+00
			-78.00		34.889E+00
			-77.50		38.364E+00
			-77.00		42.362E+00
			-76.50		48.873E+00
			-76.00		56.207E+00
			-75.50		67.339E+00
			-75.00		79.416E+00
			-74.50		95.277E+00
			-74.00		112.29E+00
			-73.50		132.59E+00
			-73.00		153.54E+00
			-72.50		176.24E+00
			-72.00		199.19E+00
			-71.50		222.30E+00
			-71.00		245.26E+00
			-70.50		266.71E+00
			-70.00		287.52E+00
			-69.50		305.46E+00
			-69.00		322.47E+00
			-68.50		335.62E+00
			-68.00		347.83E+00
			-67.50		356.23E+00
			-67.00		363.79E+00
			-66.50		369.43E+00
			-66.00		374.65E+00
			-65.50		378.32E+00
			-65.00		381.58E+00
			-64.50		383.92E+00
			-64.00		386.14E+00
			-63.50		388.33E+00
			-63.00		390.45E+00
			-62.50		392.16E+00
			-62.00		393.88E+00
			-61.50		395.55E+00
			-61.00		397.15E+00
			-60.50		398.60E+00
			-60.00		399.96E+00
			-59.50		400.93E+00
			-59.00		401.94E+00
			-58.50		403.58E+00
			-58.00		405.23E+00
			-57.50		406.39E+00
			-57.00		407.44E+00
			-56.50		408.32E+00
			-56.00		409.38E+00
			-55.50		411.01E+00
			-55.00		412.47E+00
			-54.50		413.04E+00
			-54.00		413.63E+00
			-53.50		414.83E+00
			-53.00		416.08E+00
			-52.50		417.15E+00
			-52.00		418.14E+00
			-51.50		419.27E+00
			-51.00		420.50E+00
			-50.50		421.63E+00
			-50.00		422.66E+00
			-49.50		423.64E+00
			-49.00		424.64E+00
			-48.50		425.41E+00
			-48.00		426.14E+00
			-47.50		427.21E+00
			-47.00		428.39E+00
			-46.50		429.74E+00
			-46.00		431.04E+00
			-45.50		431.77E+00
			-45.00		432.46E+00
			-44.50		433.46E+00
			-44.00		434.44E+00
			-43.50		435.33E+00
			-43.00		436.26E+00
			-42.50		437.38E+00
			-42.00		438.50E+00
			-41.50		439.40E+00
			-41.00		440.24E+00
			-40.50		441.08E+00
			-40.00		441.98E+00
			-39.50		442.92E+00
			-39.00		443.74E+00
			-38.50		444.46E+00
			-38.00		445.27E+00
			-37.50		446.08E+00
			-37.00		446.91E+00
			-36.50		448.04E+00
			-36.00		449.14E+00
			-35.50		449.93E+00
			-35.00		450.69E+00
			-34.50		451.32E+00
			-34.00		451.96E+00
			-33.50		452.85E+00
			-33.00		453.73E+00
			-32.50		454.83E+00
			-32.00		455.99E+00
			-31.50		456.69E+00
			-31.00		457.34E+00
			-30.50		458.12E+00
			-30.00		458.77E+00
			-29.50		459.35E+00
			-29.00		460.14E+00
			-28.50		461.26E+00
			-28.00		462.27E+00
			-27.50		463.03E+00
			-27.00		463.84E+00
			-26.50		464.66E+00
			-26.00		465.39E+00
			-25.50		466.06E+00
			-25.00		466.77E+00
			-24.50		467.36E+00
			-24.00		467.96E+00
			-23.50		468.57E+00
			-23.00		469.20E+00
			-22.50		470.16E+00
			-22.00		471.17E+00
			-21.50		471.72E+00
			-21.00		472.17E+00
			-20.50		472.65E+00
			-20.00		473.18E+00
			-19.50		473.54E+00
			-19.00		473.92E+00
			-18.50		474.79E+00
			-18.00		475.72E+00
			-17.50		476.22E+00
			-17.00		476.57E+00
			-16.50		476.82E+00
			-16.00		477.12E+00
			-15.50		477.83E+00
			-15.00		478.58E+00
			-14.50		479.05E+00
			-14.00		479.45E+00
			-13.50		479.73E+00
			-13.00		480.09E+00
			-12.50		480.70E+00
			-12.00		481.20E+00
			-11.50		481.26E+00
			-11.00		481.45E+00
			-10.50		482.02E+00
			-10.00		482.51E+00
			-9.50		482.64E+00
			-9.00		482.80E+00
			-8.50		483.20E+00
			-8.00		483.62E+00
			-7.50		484.07E+00
			-7.00		484.46E+00
			-6.50		484.59E+00
			-6.00		484.78E+00
			-5.50		485.33E+00
			-5.00		485.79E+00
			-4.50		485.99E+00
			-4.00		486.34E+00
			-3.50		486.71E+00
			-3.00		486.95E+00
			-2.50		487.00E+00
			-2.00		486.99E+00
			-1.50		486.86E+00
			-1.00		486.79E+00
			-0.50		487.04E+00
			0.00		487.26E+00
			0.50		487.04E+00
			1.00		486.79E+00
			1.50		486.86E+00
			2.00		486.99E+00
			2.50		487.00E+00
			3.00		486.95E+00
			3.50		486.71E+00
			4.00		486.34E+00
			4.50		485.99E+00
			5.00		485.79E+00
			5.50		485.33E+00
			6.00		484.78E+00
			6.50		484.59E+00
			7.00		484.46E+00
			7.50		484.07E+00
			8.00		483.62E+00
			8.50		483.20E+00
			9.00		482.80E+00
			9.50		482.64E+00
			10.00		482.51E+00
			10.50		482.02E+00
			11.00		481.45E+00
			11.50		481.26E+00
			12.00		481.20E+00
			12.50		480.70E+00
			13.00		480.09E+00
			13.50		479.73E+00
			14.00		479.45E+00
			14.50		479.05E+00
			15.00		478.58E+00
			15.50		477.83E+00
			16.00		477.12E+00
			16.50		476.82E+00
			17.00		476.57E+00
			17.50		476.22E+00
			18.00		475.72E+00
			18.50		474.79E+00
			19.00		473.92E+00
			19.50		473.54E+00
			20.00		473.18E+00
			20.50		472.65E+00
			21.00		472.17E+00
			21.50		471.72E+00
			22.00		471.17E+00
			22.50		470.16E+00
			23.00		469.20E+00
			23.50		468.57E+00
			24.00		467.96E+00
			24.50		467.36E+00
			25.00		466.77E+00
			25.50		466.06E+00
			26.00		465.39E+00
			26.50		464.66E+00
			27.00		463.84E+00
			27.50		463.03E+00
			28.00		462.27E+00
			28.50		461.26E+00
			29.00		460.14E+00
			29.50		459.35E+00
			30.00		458.77E+00
			30.50		458.12E+00
			31.00		457.34E+00
			31.50		456.69E+00
			32.00		455.99E+00
			32.50		454.83E+00
			33.00		453.73E+00
			33.50		452.85E+00
			34.00		451.96E+00
			34.50		451.32E+00
			35.00		450.69E+00
			35.50		449.93E+00
			36.00		449.14E+00
			36.50		448.04E+00
			37.00		446.91E+00
			37.50		446.08E+00
			38.00		445.27E+00
			38.50		444.46E+00
			39.00		443.74E+00
			39.50		442.92E+00
			40.00		441.98E+00
			40.50		441.08E+00
			41.00		440.24E+00
			41.50		439.40E+00
			42.00		438.50E+00
			42.50		437.38E+00
			43.00		436.26E+00
			43.50		435.33E+00
			44.00		434.44E+00
			44.50		433.46E+00
			45.00		432.46E+00
			45.50		431.77E+00
			46.00		431.04E+00
			46.50		429.74E+00
			47.00		428.39E+00
			47.50		427.21E+00
			48.00		426.14E+00
			48.50		425.41E+00
			49.00		424.64E+00
			49.50		423.64E+00
			50.00		422.66E+00
			50.50		421.63E+00
			51.00		420.50E+00
			51.50		419.27E+00
			52.00		418.14E+00
			52.50		417.15E+00
			53.00		416.08E+00
			53.50		414.83E+00
			54.00		413.63E+00
			54.50		413.04E+00
			55.00		412.47E+00
			55.50		411.01E+00
			56.00		409.38E+00
			56.50		408.32E+00
			57.00		407.44E+00
			57.50		406.39E+00
			58.00		405.23E+00
			58.50		403.58E+00
			59.00		401.94E+00
			59.50		400.93E+00
			60.00		399.96E+00
			60.50		398.60E+00
			61.00		397.15E+00
			61.50		395.55E+00
			62.00		393.88E+00
			62.50		392.16E+00
			63.00		390.45E+00
			63.50		388.33E+00
			64.00		386.14E+00
			64.50		383.92E+00
			65.00		381.58E+00
			65.50		378.32E+00
			66.00		374.65E+00
			66.50		369.43E+00
			67.00		363.79E+00
			67.50		356.23E+00
			68.00		347.83E+00
			68.50		335.62E+00
			69.00		322.47E+00
			69.50		305.46E+00
			70.00		287.52E+00
			70.50		266.71E+00
			71.00		245.26E+00
			71.50		222.30E+00
			72.00		199.19E+00
			72.50		176.24E+00
			73.00		153.54E+00
			73.50		132.59E+00
			74.00		112.29E+00
			74.50		95.277E+00
			75.00		79.416E+00
			75.50		67.339E+00
			76.00		56.207E+00
			76.50		48.873E+00
			77.00		42.362E+00
			77.50		38.364E+00
			78.00		34.889E+00
			78.50		32.506E+00
			79.00		30.372E+00
			79.50		28.860E+00
			80.00		27.458E+00
			80.50		26.264E+00
			81.00		25.139E+00
			81.50		24.306E+00
			82.00		23.487E+00
			82.50		22.702E+00
			83.00		21.959E+00
			83.50		21.372E+00
			84.00		20.811E+00
			84.50		20.331E+00
			85.00		19.858E+00
			85.50		19.416E+00
			86.00		18.982E+00
			86.50		18.547E+00
			87.00		18.117E+00
			87.50		17.772E+00
			88.00		17.431E+00
			88.50		17.073E+00
			89.00		16.739E+00
			89.50		16.494E+00
			90.00		16.243E+00
			90.50		16.038E+00
			91.00		15.836E+00
			91.50		15.528E+00
			92.00		15.208E+00
			92.50		14.904E+00
			93.00		14.613E+00
			93.50		14.416E+00
			94.00		14.229E+00
			94.50		14.059E+00
			95.00		13.901E+00
			95.50		13.725E+00
			96.00		13.538E+00
			96.50		13.340E+00
			97.00		13.139E+00
			97.50		12.958E+00
			98.00		12.782E+00
			98.50		12.569E+00
			99.00		12.357E+00
			99.50		12.221E+00
			100.00		12.094E+00
			100.50		11.973E+00
			101.00		11.863E+00
			101.50		11.740E+00
			102.00		11.591E+00
			102.50		11.413E+00
			103.00		11.254E+00
			103.50		11.116E+00
			104.00		10.969E+00
			104.50		10.852E+00
			105.00		10.751E+00
			105.50		10.623E+00
			106.00		10.479E+00
			106.50		10.354E+00
			107.00		10.252E+00
			107.50		10.150E+00
			108.00		10.038E+00
			108.50		9.9388E+00
			109.00		9.8463E+00
			109.50		9.7635E+00
			110.00		9.6756E+00
			110.50		9.5596E+00
			111.00		9.4461E+00
			111.50		9.3556E+00
			112.00		9.2675E+00
			112.50		9.1532E+00
			113.00		9.0378E+00
			113.50		8.9319E+00
			114.00		8.8274E+00
			114.50		8.7675E+00
			115.00		8.7074E+00
			115.50		8.5965E+00
			116.00		8.4930E+00
			116.50		8.4289E+00
			117.00		8.3587E+00
			117.50		8.2922E+00
			118.00		8.2428E+00
			118.50		8.1990E+00
			119.00		8.1395E+00
			119.50		8.0345E+00
			120.00		7.9292E+00
		END_DATA
	END_SCAN  1
	BEGIN_SCAN  2
		TASK_NAME=tba PDD Profiles
		PROGRAM=WaterTankScans
		COMMENT=FBF_SanPietro
		MEAS_DATE=08-Feb-2021 09:38:10
		LINAC=MRIdian
		MODALITY=X
		ISOCENTER=900.00
		INPLANE_AXIS=Y
		CROSSPLANE_AXIS=X
		DEPTH_AXIS=Depth
		INPLANE_AXIS_DIR=TARGET_GUN
		CROSSPLANE_AXIS_DIR=LEFT_RIGHT
		DEPTH_AXIS_DIR=UP_DOWN
		ENERGY=6.00
		NOMINAL_DMAX=15.00
		SSD=850.00
		SCD=450.00
		WEDGE_ANGLE=0.00
		FIELD_INPLANE=149.40
		FIELD_CROSSPLANE=149.40
		FIELD_TYPE=RECTANGULAR
		GANTRY=0.00
		GANTRY_UPRIGHT_POSITION=0
		GANTRY_ROTATION=CW
		COLL_ANGLE=0.00
		COLL_OFFSET_INPLANE=0.00
		COLL_OFFSET_CROSSPLANE=0.00
		SCAN_DEVICE=BeamScan
		SCAN_DEVICE_SETUP=BARA_LEFT_RIGHT
		ELECTROMETER=BeamScan
		RANGE_FIELD=LOW
		RANGE_REFERENCE=MEDIUM
		DETECTOR=THIMBLE_CHAMBER
		DETECTOR_RADIUS=2.40
		DETECTOR_NAME=A28MR
		DETECTOR_SN=-
		DETECTOR_CALIBRATION=588000000.00
		DETECTOR_IS_CALIBRATED=0
		DETECTOR_REFERENCE=THIMBLE_CHAMBER
		DETECTOR_REFERENCE_RADIUS=2.75
		DETECTOR_REFERENCE_NAME=A28MR
		DETECTOR_REFERENCE_SN=—
		DETECTOR_REFERENCE_IS_CALIBRATED=0
		DETECTOR_REFERENCE_CALIBRATION=303000000.00
		DETECTOR_HV=300.0
		DETECTOR_REFERENCE_HV=300.0
		DETECTOR_ORIENTATION=HORIZONTAL
		FILTER=FFF
		SCAN_SPEED_PROFILE=10.00
		SCAN_PROF_SPEED_DEP=DEPTH
		SCAN_SPEED_PDD=0.00
		SCAN_PDD_SPEED_DEP=ENERGY
		DETECTOR_TYPE=A28MR
		REF_FIELD_DEPTH=220.00
		REF_FIELD_DEFINED=ISOCENTER
		REF_FIELD_INPLANE=100.00
		REF_FIELD_CROSSPLANE=100.00
		REF_SCAN_POSITIONS=-85.00;-84.00;-83.00;-82.00;-81.00;-80.00;-79.00;-78.00;-77.00;-76.00;-75.00;-74.00;-73.00;-72.00;-71.00;-70.00;-69.00;-68.00;-67.00;-66.00;-65.00;-64.00;-63.00;-62.00;-61.00;-60.00;-59.00;-58.00;-57.00;-56.00;-55.00;-54.00;-53.00;-52.00;-51.00;-50.00;-49.00;-48.00;-47.00;-46.00;-45.00;-44.00;-43.00;-42.00;-41.00;-40.00;-39.00;-38.00;-37.00;-36.00;-35.00;-34.00;-33.00;-32.00;-31.00;-30.00;-29.00;-28.00;-27.00;-26.00;-25.00;-24.00;-23.00;-22.00;-21.00;-20.00;-19.00;-18.00;-17.00;-16.00;-15.00;-14.00;-13.00;-12.00;-11.00;-10.00;-9.00;-8.00;-7.00;-6.00;-5.00;-4.00;-3.00;-2.00;-1.00;0.00;1.00;2.00;3.00;4.00;5.00;6.00;7.00;8.00;9.00;10.00;11.00;12.00;13.00;14.00;15.00;16.00;17.00;18.00;19.00;20.00;21.00;22.00;23.00;24.00;25.00;26.00;27.00;28.00;29.00;30.00;31.00;32.00;33.00;34.00;35.00;36.00;37.00;38.00;39.00;40.00;41.00;42.00;43.00;44.00;45.00;46.00;47.00;48.00;49.00;50.00;51.00;52.00;53.00;54.00;55.00;56.00;57.00;58.00;59.00;60.00;61.00;62.00;63.00;64.00;65.00;66.00;67.00;68.00;69.00;70.00;71.00;72.00;73.00;74.00;75.00;76.00;77.00;78.00;79.00;80.00;81.00;82.00;83.00;84.00;85.00;
		REF_OVERSCAN_FACTOR=1.00
		SCAN_CURVETYPE=CROSSPLANE_PROFILE
		SCAN_DEPTH=55.00
		SCAN_OFFAXIS_INPLANE=0.00
		SCAN_OFFAXIS_CROSSPLANE=0.00
		SCAN_ANGLE=0.00
		SCAN_DIAGONAL=NOT_DIAGONAL
		SCAN_DIRECTION=POSITIVE
		MEAS_MEDIUM=WATER
		MEAS_PRESET=MEAS_CONTINUOUS_REFERENCE_SCAN
		MEAS_TIME=0.100
		MEAS_UNIT=A.U.
		INCLINATION_ANGLE=0.00
		PRESSURE=1013.25
		TEMPERATURE=20.00
		NORM_TEMPERATURE=20.00
		CORRECTION_FACTOR=1.0000
		EXPECTED_MAX_DOSE_RATE=3.00
		EPOM_DEPTH_SHIFT=0.2
		EPOM_MODE=SHIFT_PROTOCOL
		CORRECTIONS=SMOOTHED_CORR;CAX_CORR;INTERPOLATED_CORR;SYMMETRY_CORR;
		BEGIN_DATA
			-128.50		9.9689E+00
			-128.00		10.056E+00
			-127.50		10.142E+00
			-127.00		10.223E+00
			-126.50		10.304E+00
			-126.00		10.431E+00
			-125.50		10.573E+00
			-125.00		10.671E+00
			-124.50		10.737E+00
			-124.00		10.804E+00
			-123.50		10.870E+00
			-123.00		10.958E+00
			-122.50		11.089E+00
			-122.00		11.212E+00
			-121.50		11.308E+00
			-121.00		11.402E+00
			-120.50		11.504E+00
			-120.00		11.605E+00
			-119.50		11.725E+00
			-119.00		11.843E+00
			-118.50		11.996E+00
			-118.00		12.160E+00
			-117.50		12.283E+00
			-117.00		12.384E+00
			-116.50		12.503E+00
			-116.00		12.644E+00
			-115.50		12.780E+00
			-115.00		12.903E+00
			-114.50		13.036E+00
			-114.00		13.208E+00
			-113.50		13.379E+00
			-113.00		13.514E+00
			-112.50		13.648E+00
			-112.00		13.806E+00
			-111.50		13.969E+00
			-111.00		14.132E+00
			-110.50		14.297E+00
			-110.00		14.469E+00
			-109.50		14.649E+00
			-109.00		14.861E+00
			-108.50		15.108E+00
			-108.00		15.306E+00
			-107.50		15.411E+00
			-107.00		15.545E+00
			-106.50		15.782E+00
			-106.00		16.017E+00
			-105.50		16.203E+00
			-105.00		16.389E+00
			-104.50		16.594E+00
			-104.00		16.801E+00
			-103.50		17.014E+00
			-103.00		17.230E+00
			-102.50		17.460E+00
			-102.00		17.700E+00
			-101.50		17.961E+00
			-101.00		18.244E+00
			-100.50		18.504E+00
			-100.00		18.723E+00
			-99.50		18.959E+00
			-99.00		19.261E+00
			-98.50		19.562E+00
			-98.00		19.846E+00
			-97.50		20.128E+00
			-97.00		20.451E+00
			-96.50		20.779E+00
			-96.00		21.136E+00
			-95.50		21.500E+00
			-95.00		21.844E+00
			-94.50		22.174E+00
			-94.00		22.515E+00
			-93.50		22.868E+00
			-93.00		23.243E+00
			-92.50		23.659E+00
			-92.00		24.076E+00
			-91.50		24.500E+00
			-91.00		24.930E+00
			-90.50		25.423E+00
			-90.00		25.916E+00
			-89.50		26.425E+00
			-89.00		26.934E+00
			-88.50		27.543E+00
			-88.00		28.183E+00
			-87.50		28.770E+00
			-87.00		29.330E+00
			-86.50		29.992E+00
			-86.00		30.758E+00
			-85.50		31.526E+00
			-85.00		32.290E+00
			-84.50		33.090E+00
			-84.00		34.045E+00
			-83.50		35.020E+00
			-83.00		36.271E+00
			-82.50		37.521E+00
			-82.00		39.063E+00
			-81.50		40.625E+00
			-81.00		42.970E+00
			-80.50		45.548E+00
			-80.00		49.329E+00
			-79.50		53.766E+00
			-79.00		60.081E+00
			-78.50		68.193E+00
			-78.00		78.070E+00
			-77.50		90.624E+00
			-77.00		104.17E+00
			-76.50		120.81E+00
			-76.00		137.61E+00
			-75.50		156.61E+00
			-75.00		175.61E+00
			-74.50		195.23E+00
			-74.00		214.87E+00
			-73.50		234.42E+00
			-73.00		253.93E+00
			-72.50		271.94E+00
			-72.00		289.15E+00
			-71.50		304.23E+00
			-71.00		317.52E+00
			-70.50		328.90E+00
			-70.00		337.47E+00
			-69.50		345.46E+00
			-69.00		351.26E+00
			-68.50		356.87E+00
			-68.00		360.46E+00
			-67.50		364.05E+00
			-67.00		366.43E+00
			-66.50		368.74E+00
			-66.00		371.05E+00
			-65.50		373.36E+00
			-65.00		375.33E+00
			-64.50		377.13E+00
			-64.00		378.75E+00
			-63.50		380.20E+00
			-63.00		381.62E+00
			-62.50		383.01E+00
			-62.00		384.39E+00
			-61.50		385.76E+00
			-61.00		387.11E+00
			-60.50		388.38E+00
			-60.00		389.65E+00
			-59.50		390.85E+00
			-59.00		392.04E+00
			-58.50		393.33E+00
			-58.00		394.64E+00
			-57.50		395.94E+00
			-57.00		397.23E+00
			-56.50		398.46E+00
			-56.00		399.64E+00
			-55.50		400.82E+00
			-55.00		402.01E+00
			-54.50		403.15E+00
			-54.00		404.16E+00
			-53.50		405.16E+00
			-53.00		406.11E+00
			-52.50		407.06E+00
			-52.00		408.21E+00
			-51.50		409.37E+00
			-51.00		410.48E+00
			-50.50		411.58E+00
			-50.00		412.61E+00
			-49.50		413.60E+00
			-49.00		414.58E+00
			-48.50		415.55E+00
			-48.00		416.49E+00
			-47.50		417.39E+00
			-47.00		418.30E+00
			-46.50		419.28E+00
			-46.00		420.27E+00
			-45.50		421.33E+00
			-45.00		422.39E+00
			-44.50		423.33E+00
			-44.00		424.27E+00
			-43.50		425.17E+00
			-43.00		426.07E+00
			-42.50		426.99E+00
			-42.00		427.92E+00
			-41.50		428.83E+00
			-41.00		429.73E+00
			-40.50		430.63E+00
			-40.00		431.52E+00
			-39.50		432.39E+00
			-39.00		433.23E+00
			-38.50		434.07E+00
			-38.00		434.96E+00
			-37.50		435.85E+00
			-37.00		436.80E+00
			-36.50		437.76E+00
			-36.00		438.55E+00
			-35.50		439.31E+00
			-35.00		440.08E+00
			-34.50		440.85E+00
			-34.00		441.71E+00
			-33.50		442.66E+00
			-33.00		443.57E+00
			-32.50		444.42E+00
			-32.00		445.24E+00
			-31.50		445.99E+00
			-31.00		446.72E+00
			-30.50		447.36E+00
			-30.00		447.99E+00
			-29.50		448.64E+00
			-29.00		449.30E+00
			-28.50		450.11E+00
			-28.00		450.95E+00
			-27.50		451.78E+00
			-27.00		452.58E+00
			-26.50		453.32E+00
			-26.00		453.99E+00
			-25.50		454.70E+00
			-25.00		455.46E+00
			-24.50		456.23E+00
			-24.00		457.07E+00
			-23.50		457.87E+00
			-23.00		458.43E+00
			-22.50		458.98E+00
			-22.00		459.37E+00
			-21.50		459.75E+00
			-21.00		460.32E+00
			-20.50		460.91E+00
			-20.00		461.52E+00
			-19.50		462.15E+00
			-19.00		462.67E+00
			-18.50		463.13E+00
			-18.00		463.56E+00
			-17.50		463.98E+00
			-17.00		464.42E+00
			-16.50		464.90E+00
			-16.00		465.38E+00
			-15.50		465.85E+00
			-15.00		466.33E+00
			-14.50		466.82E+00
			-14.00		467.32E+00
			-13.50		467.76E+00
			-13.00		468.18E+00
			-12.50		468.55E+00
			-12.00		468.89E+00
			-11.50		469.23E+00
			-11.00		469.58E+00
			-10.50		469.89E+00
			-10.00		470.18E+00
			-9.50		470.46E+00
			-9.00		470.73E+00
			-8.50		471.00E+00
			-8.00		471.27E+00
			-7.50		471.54E+00
			-7.00		471.78E+00
			-6.50		472.02E+00
			-6.00		472.31E+00
			-5.50		472.61E+00
			-5.00		472.91E+00
			-4.50		473.22E+00
			-4.00		473.48E+00
			-3.50		473.72E+00
			-3.00		473.93E+00
			-2.50		474.10E+00
			-2.00		474.23E+00
			-1.50		474.29E+00
			-1.00		474.33E+00
			-0.50		474.32E+00
			0.00		474.31E+00
			0.50		474.32E+00
			1.00		474.33E+00
			1.50		474.29E+00
			2.00		474.23E+00
			2.50		474.10E+00
			3.00		473.93E+00
			3.50		473.72E+00
			4.00		473.48E+00
			4.50		473.22E+00
			5.00		472.91E+00
			5.50		472.61E+00
			6.00		472.31E+00
			6.50		472.02E+00
			7.00		471.78E+00
			7.50		471.54E+00
			8.00		471.27E+00
			8.50		471.00E+00
			9.00		470.73E+00
			9.50		470.46E+00
			10.00		470.18E+00
			10.50		469.89E+00
			11.00		469.58E+00
			11.50		469.23E+00
			12.00		468.89E+00
			12.50		468.55E+00
			13.00		468.18E+00
			13.50		467.76E+00
			14.00		467.32E+00
			14.50		466.82E+00
			15.00		466.33E+00
			15.50		465.85E+00
			16.00		465.38E+00
			16.50		464.90E+00
			17.00		464.42E+00
			17.50		463.98E+00
			18.00		463.56E+00
			18.50		463.13E+00
			19.00		462.67E+00
			19.50		462.15E+00
			20.00		461.52E+00
			20.50		460.91E+00
			21.00		460.32E+00
			21.50		459.75E+00
			22.00		459.37E+00
			22.50		458.98E+00
			23.00		458.43E+00
			23.50		457.87E+00
			24.00		457.07E+00
			24.50		456.23E+00
			25.00		455.46E+00
			25.50		454.70E+00
			26.00		453.99E+00
			26.50		453.32E+00
			27.00		452.58E+00
			27.50		451.78E+00
			28.00		450.95E+00
			28.50		450.11E+00
			29.00		449.30E+00
			29.50		448.64E+00
			30.00		447.99E+00
			30.50		447.36E+00
			31.00		446.72E+00
			31.50		445.99E+00
			32.00		445.24E+00
			32.50		444.42E+00
			33.00		443.57E+00
			33.50		442.66E+00
			34.00		441.71E+00
			34.50		440.85E+00
			35.00		440.08E+00
			35.50		439.31E+00
			36.00		438.55E+00
			36.50		437.76E+00
			37.00		436.80E+00
			37.50		435.85E+00
			38.00		434.96E+00
			38.50		434.07E+00
			39.00		433.23E+00
			39.50		432.39E+00
			40.00		431.52E+00
			40.50		430.63E+00
			41.00		429.73E+00
			41.50		428.83E+00
			42.00		427.92E+00
			42.50		426.99E+00
			43.00		426.07E+00
			43.50		425.17E+00
			44.00		424.27E+00
			44.50		423.33E+00
			45.00		422.39E+00
			45.50		421.33E+00
			46.00		420.27E+00
			46.50		419.28E+00
			47.00		418.30E+00
			47.50		417.39E+00
			48.00		416.49E+00
			48.50		415.55E+00
			49.00		414.58E+00
			49.50		413.60E+00
			50.00		412.61E+00
			50.50		411.58E+00
			51.00		410.48E+00
			51.50		409.37E+00
			52.00		408.21E+00
			52.50		407.06E+00
			53.00		406.11E+00
			53.50		405.16E+00
			54.00		404.16E+00
			54.50		403.15E+00
			55.00		402.01E+00
			55.50		400.82E+00
			56.00		399.64E+00
			56.50		398.46E+00
			57.00		397.23E+00
			57.50		395.94E+00
			58.00		394.64E+00
			58.50		393.33E+00
			59.00		392.04E+00
			59.50		390.85E+00
			60.00		389.65E+00
			60.50		388.38E+00
			61.00		387.11E+00
			61.50		385.76E+00
			62.00		384.39E+00
			62.50		383.01E+00
			63.00		381.62E+00
			63.50		380.20E+00
			64.00		378.75E+00
			64.50		377.13E+00
			65.00		375.33E+00
			65.50		373.36E+00
			66.00		371.05E+00
			66.50		368.74E+00
			67.00		366.43E+00
			67.50		364.05E+00
			68.00		360.46E+00
			68.50		356.87E+00
			69.00		351.26E+00
			69.50		345.46E+00
			70.00		337.47E+00
			70.50		328.90E+00
			71.00		317.52E+00
			71.50		304.23E+00
			72.00		289.15E+00
			72.50		271.94E+00
			73.00		253.93E+00
			73.50		234.42E+00
			74.00		214.87E+00
			74.50		195.23E+00
			75.00		175.61E+00
			75.50		156.61E+00
			76.00		137.61E+00
			76.50		120.81E+00
			77.00		104.17E+00
			77.50		90.624E+00
			78.00		78.070E+00
			78.50		68.193E+00
			79.00		60.081E+00
			79.50		53.766E+00
			80.00		49.329E+00
			80.50		45.548E+00
			81.00		42.970E+00
			81.50		40.625E+00
			82.00		39.063E+00
			82.50		37.521E+00
			83.00		36.271E+00
			83.50		35.020E+00
			84.00		34.045E+00
			84.50		33.090E+00
			85.00		32.290E+00
			85.50		31.526E+00
			86.00		30.758E+00
			86.50		29.992E+00
			87.00		29.330E+00
			87.50		28.770E+00
			88.00		28.183E+00
			88.50		27.543E+00
			89.00		26.934E+00
			89.50		26.425E+00
			90.00		25.916E+00
			90.50		25.423E+00
			91.00		24.930E+00
			91.50		24.500E+00
			92.00		24.076E+00
			92.50		23.659E+00
			93.00		23.243E+00
			93.50		22.868E+00
			94.00		22.515E+00
			94.50		22.174E+00
			95.00		21.844E+00
			95.50		21.500E+00
			96.00		21.136E+00
			96.50		20.779E+00
			97.00		20.451E+00
			97.50		20.128E+00
			98.00		19.846E+00
			98.50		19.562E+00
			99.00		19.261E+00
			99.50		18.959E+00
			100.00		18.723E+00
			100.50		18.504E+00
			101.00		18.244E+00
			101.50		17.961E+00
			102.00		17.700E+00
			102.50		17.460E+00
			103.00		17.230E+00
			103.50		17.014E+00
			104.00		16.801E+00
			104.50		16.594E+00
			105.00		16.389E+00
			105.50		16.203E+00
			106.00		16.017E+00
			106.50		15.782E+00
			107.00		15.545E+00
			107.50		15.411E+00
			108.00		15.306E+00
			108.50		15.108E+00
			109.00		14.861E+00
			109.50		14.649E+00
			110.00		14.469E+00
			110.50		14.297E+00
			111.00		14.132E+00
			111.50		13.969E+00
			112.00		13.806E+00
			112.50		13.648E+00
			113.00		13.514E+00
			113.50		13.379E+00
			114.00		13.208E+00
			114.50		13.036E+00
			115.00		12.903E+00
			115.50		12.780E+00
			116.00		12.644E+00
			116.50		12.503E+00
			117.00		12.384E+00
			117.50		12.283E+00
			118.00		12.160E+00
			118.50		11.996E+00
			119.00		11.843E+00
			119.50		11.725E+00
			120.00		11.605E+00
			120.50		11.504E+00
			121.00		11.402E+00
			121.50		11.308E+00
			122.00		11.212E+00
			122.50		11.089E+00
			123.00		10.958E+00
			123.50		10.870E+00
			124.00		10.804E+00
			124.50		10.737E+00
			125.00		10.671E+00
			125.50		10.573E+00
			126.00		10.431E+00
			126.50		10.304E+00
			127.00		10.223E+00
			127.50		10.142E+00
			128.00		10.056E+00
			128.50		9.9689E+00
		END_DATA
	END_SCAN  2
	BEGIN_SCAN  3
		TASK_NAME=tba PDD Profiles
		PROGRAM=WaterTankScans
		COMMENT=FBF_SanPietro
		MEAS_DATE=08-Feb-2021 09:38:10
		LINAC=MRIdian
		MODALITY=X
		ISOCENTER=900.00
		INPLANE_AXIS=Y
		CROSSPLANE_AXIS=X
		DEPTH_AXIS=Depth
		INPLANE_AXIS_DIR=TARGET_GUN
		CROSSPLANE_AXIS_DIR=LEFT_RIGHT
		DEPTH_AXIS_DIR=UP_DOWN
		ENERGY=6.00
		NOMINAL_DMAX=15.00
		SSD=850.00
		SCD=450.00
		WEDGE_ANGLE=0.00
		FIELD_INPLANE=149.40
		FIELD_CROSSPLANE=149.40
		FIELD_TYPE=RECTANGULAR
		GANTRY=0.00
		GANTRY_UPRIGHT_POSITION=0
		GANTRY_ROTATION=CW
		COLL_ANGLE=0.00
		COLL_OFFSET_INPLANE=0.00
		COLL_OFFSET_CROSSPLANE=0.00
		SCAN_DEVICE=BeamScan
		SCAN_DEVICE_SETUP=BARA_LEFT_RIGHT
		ELECTROMETER=BeamScan
		RANGE_FIELD=LOW
		RANGE_REFERENCE=MEDIUM
		DETECTOR=THIMBLE_CHAMBER
		DETECTOR_RADIUS=2.40
		DETECTOR_NAME=A28MR
