BEGIN_SCAN_DATA
	FORMAT=CC-Export V1.9                  
	FILE_CREATION_DATE=11-Mar-2022 18:15:35
	LAST_MODIFIED=11-Mar-2022 18:15:35
	BEGIN_SCAN  1
		TASK_NAME=tba PDD Profiles
		PROGRAM=WaterTankScans
		COMMENT=FBF_SanPietro
		MEAS_DATE=08-Feb-2021 09:38:10
		LINAC=MRIdian
		MODALITY=X
		ISOCENTER=900.00
		INPLANE_AXIS=Y
		CROSSPLANE_AXIS=X
		DEPTH_AXIS=Depth
		INPLANE_AXIS_DIR=TARGET_GUN
		CROSSPLANE_AXIS_DIR=LEFT_RIGHT
		DEPTH_AXIS_DIR=UP_DOWN
		ENERGY=6.00
		NOMINAL_DMAX=15.00
		SSD=850.00
		SCD=450.00
		WEDGE_ANGLE=0.00
		FIELD_INPLANE=199.20
		FIELD_CROSSPLANE=199.20
		FIELD_TYPE=RECTANGULAR
		GANTRY=0.00
		GANTRY_UPRIGHT_POSITION=0
		GANTRY_ROTATION=CW
		COLL_ANGLE=0.00
		COLL_OFFSET_INPLANE=0.00
		COLL_OFFSET_CROSSPLANE=0.00
		SCAN_DEVICE=BeamScan
		SCAN_DEVICE_SETUP=BARA_LEFT_RIGHT
		ELECTROMETER=BeamScan
		RANGE_FIELD=LOW
		RANGE_REFERENCE=MEDIUM
		DETECTOR=THIMBLE_CHAMBER
		DETECTOR_RADIUS=2.40
		DETECTOR_NAME=A28MR
		DETECTOR_SN=-
		DETECTOR_CALIBRATION=588000000.00
		DETECTOR_IS_CALIBRATED=0
		DETECTOR_REFERENCE=THIMBLE_CHAMBER
		DETECTOR_REFERENCE_RADIUS=2.75
		DETECTOR_REFERENCE_NAME=A28MR
		DETECTOR_REFERENCE_SN=—
		DETECTOR_REFERENCE_IS_CALIBRATED=0
		DETECTOR_REFERENCE_CALIBRATION=303000000.00
		DETECTOR_HV=300.0
		DETECTOR_REFERENCE_HV=300.0
		DETECTOR_ORIENTATION=HORIZONTAL
		FILTER=FFF
		SCAN_SPEED_PROFILE=10.00
		SCAN_PROF_SPEED_DEP=DEPTH
		SCAN_SPEED_PDD=0.00
		SCAN_PDD_SPEED_DEP=ENERGY
		DETECTOR_TYPE=A28MR
		REF_FIELD_DEPTH=220.00
		REF_FIELD_DEFINED=ISOCENTER
		REF_FIELD_INPLANE=100.00
		REF_FIELD_CROSSPLANE=100.00
		REF_SCAN_POSITIONS=-85.00;-84.00;-83.00;-82.00;-81.00;-80.00;-79.00;-78.00;-77.00;-76.00;-75.00;-74.00;-73.00;-72.00;-71.00;-70.00;-69.00;-68.00;-67.00;-66.00;-65.00;-64.00;-63.00;-62.00;-61.00;-60.00;-59.00;-58.00;-57.00;-56.00;-55.00;-54.00;-53.00;-52.00;-51.00;-50.00;-49.00;-48.00;-47.00;-46.00;-45.00;-44.00;-43.00;-42.00;-41.00;-40.00;-39.00;-38.00;-37.00;-36.00;-35.00;-34.00;-33.00;-32.00;-31.00;-30.00;-29.00;-28.00;-27.00;-26.00;-25.00;-24.00;-23.00;-22.00;-21.00;-20.00;-19.00;-18.00;-17.00;-16.00;-15.00;-14.00;-13.00;-12.00;-11.00;-10.00;-9.00;-8.00;-7.00;-6.00;-5.00;-4.00;-3.00;-2.00;-1.00;0.00;1.00;2.00;3.00;4.00;5.00;6.00;7.00;8.00;9.00;10.00;11.00;12.00;13.00;14.00;15.00;16.00;17.00;18.00;19.00;20.00;21.00;22.00;23.00;24.00;25.00;26.00;27.00;28.00;29.00;30.00;31.00;32.00;33.00;34.00;35.00;36.00;37.00;38.00;39.00;40.00;41.00;42.00;43.00;44.00;45.00;46.00;47.00;48.00;49.00;50.00;51.00;52.00;53.00;54.00;55.00;56.00;57.00;58.00;59.00;60.00;61.00;62.00;63.00;64.00;65.00;66.00;67.00;68.00;69.00;70.00;71.00;72.00;73.00;74.00;75.00;76.00;77.00;78.00;79.00;80.00;81.00;82.00;83.00;84.00;85.00;
		REF_OVERSCAN_FACTOR=1.00
		SCAN_CURVETYPE=CROSSPLANE_PROFILE
		SCAN_DEPTH=20.00
		SCAN_OFFAXIS_INPLANE=0.00
		SCAN_OFFAXIS_CROSSPLANE=0.00
		SCAN_ANGLE=0.00
		SCAN_DIAGONAL=NOT_DIAGONAL
		SCAN_DIRECTION=POSITIVE
		MEAS_MEDIUM=WATER
		MEAS_PRESET=MEAS_CONTINUOUS_REFERENCE_SCAN
		MEAS_TIME=0.100
		MEAS_UNIT=A.U.
		INCLINATION_ANGLE=0.00
		PRESSURE=1013.25
		TEMPERATURE=20.00
		NORM_TEMPERATURE=20.00
		CORRECTION_FACTOR=1.0000
		EXPECTED_MAX_DOSE_RATE=3.00
		EPOM_DEPTH_SHIFT=0.2
		EPOM_MODE=SHIFT_PROTOCOL
		CORRECTIONS=SMOOTHED_CORR;CAX_CORR;INTERPOLATED_CORR;SYMMETRY_CORR;
		BEGIN_DATA
			-140.00		10.470E+00
			-139.50		10.517E+00
			-139.00		10.615E+00
			-138.50		10.699E+00
			-138.00		10.791E+00
			-137.50		10.913E+00
			-137.00		11.029E+00
			-136.50		11.139E+00
			-136.00		11.240E+00
			-135.50		11.302E+00
			-135.00		11.392E+00
			-134.50		11.533E+00
			-134.00		11.658E+00
			-133.50		11.772E+00
			-133.00		11.880E+00
			-132.50		11.971E+00
			-132.00		12.066E+00
			-131.50		12.174E+00
			-131.00		12.301E+00
			-130.50		12.463E+00
			-130.00		12.617E+00
			-129.50		12.752E+00
			-129.00		12.885E+00
			-128.50		12.997E+00
			-128.00		13.097E+00
			-127.50		13.239E+00
			-127.00		13.412E+00
			-126.50		13.592E+00
			-126.00		13.767E+00
			-125.50		13.917E+00
			-125.00		14.055E+00
			-124.50		14.170E+00
			-124.00		14.279E+00
			-123.50		14.424E+00
			-123.00		14.579E+00
			-122.50		14.750E+00
			-122.00		14.936E+00
			-121.50		15.109E+00
			-121.00		15.279E+00
			-120.50		15.458E+00
			-120.00		15.648E+00
			-119.50		15.866E+00
			-119.00		16.096E+00
			-118.50		16.361E+00
			-118.00		16.625E+00
			-117.50		16.810E+00
			-117.00		16.968E+00
			-116.50		17.152E+00
			-116.00		17.373E+00
			-115.50		17.670E+00
			-115.00		17.947E+00
			-114.50		18.132E+00
			-114.00		18.336E+00
			-113.50		18.654E+00
			-113.00		19.012E+00
			-112.50		19.397E+00
			-112.00		19.756E+00
			-111.50		20.071E+00
			-111.00		20.390E+00
			-110.50		20.745E+00
			-110.00		21.139E+00
			-109.50		21.627E+00
			-109.00		22.117E+00
			-108.50		22.556E+00
			-108.00		22.999E+00
			-107.50		23.545E+00
			-107.00		24.149E+00
			-106.50		24.831E+00
			-106.00		25.528E+00
			-105.50		26.263E+00
			-105.00		27.039E+00
			-104.50		27.993E+00
			-104.00		29.049E+00
			-103.50		30.385E+00
			-103.00		31.904E+00
			-102.50		33.889E+00
			-102.00		36.201E+00
			-101.50		39.507E+00
			-101.00		43.499E+00
			-100.50		49.409E+00
			-100.00		56.509E+00
			-99.50		66.728E+00
			-99.00		78.161E+00
			-98.50		92.717E+00
			-98.00		108.61E+00
			-97.50		126.81E+00
			-97.00		145.72E+00
			-96.50		165.57E+00
			-96.00		185.68E+00
			-95.50		206.15E+00
			-95.00		226.40E+00
			-94.50		245.38E+00
			-94.00		263.42E+00
			-93.50		279.04E+00
			-93.00		293.40E+00
			-92.50		304.73E+00
			-92.00		314.80E+00
			-91.50		322.07E+00
			-91.00		328.40E+00
			-90.50		332.81E+00
			-90.00		336.58E+00
			-89.50		339.63E+00
			-89.00		342.46E+00
			-88.50		344.54E+00
			-88.00		346.34E+00
			-87.50		348.10E+00
			-87.00		349.79E+00
			-86.50		351.35E+00
			-86.00		352.92E+00
			-85.50		354.21E+00
			-85.00		355.40E+00
			-84.50		356.60E+00
			-84.00		357.79E+00
			-83.50		358.88E+00
			-83.00		359.93E+00
			-82.50		360.89E+00
			-82.00		361.86E+00
			-81.50		362.90E+00
			-81.00		363.98E+00
			-80.50		365.11E+00
			-80.00		366.21E+00
			-79.50		367.22E+00
			-79.00		368.20E+00
			-78.50		369.16E+00
			-78.00		370.14E+00
			-77.50		371.13E+00
			-77.00		372.09E+00
			-76.50		373.03E+00
			-76.00		373.96E+00
			-75.50		374.89E+00
			-75.00		375.86E+00
			-74.50		376.86E+00
			-74.00		377.86E+00
			-73.50		378.86E+00
			-73.00		379.83E+00
			-72.50		380.79E+00
			-72.00		381.76E+00
			-71.50		382.77E+00
			-71.00		383.77E+00
			-70.50		384.77E+00
			-70.00		385.77E+00
			-69.50		386.67E+00
			-69.00		387.55E+00
			-68.50		388.42E+00
			-68.00		389.29E+00
			-67.50		390.23E+00
			-67.00		391.20E+00
			-66.50		392.19E+00
			-66.00		393.22E+00
			-65.50		394.21E+00
			-65.00		395.18E+00
			-64.50		396.10E+00
			-64.00		396.95E+00
			-63.50		397.72E+00
			-63.00		398.48E+00
			-62.50		399.26E+00
			-62.00		400.08E+00
			-61.50		401.03E+00
			-61.00		402.05E+00
			-60.50		403.11E+00
			-60.00		404.14E+00
			-59.50		405.06E+00
			-59.00		405.88E+00
			-58.50		406.65E+00
			-58.00		407.47E+00
			-57.50		408.41E+00
			-57.00		409.43E+00
			-56.50		410.46E+00
			-56.00		411.40E+00
			-55.50		412.23E+00
			-55.00		413.07E+00
			-54.50		414.00E+00
			-54.00		415.00E+00
			-53.50		416.06E+00
			-53.00		417.09E+00
			-52.50		418.04E+00
			-52.00		418.96E+00
			-51.50		419.83E+00
			-51.00		420.68E+00
			-50.50		421.52E+00
			-50.00		422.39E+00
			-49.50		423.31E+00
			-49.00		424.26E+00
			-48.50		425.19E+00
			-48.00		426.11E+00
			-47.50		427.04E+00
			-47.00		427.96E+00
			-46.50		428.90E+00
			-46.00		429.82E+00
			-45.50		430.73E+00
			-45.00		431.64E+00
			-44.50		432.59E+00
			-44.00		433.59E+00
			-43.50		434.54E+00
			-43.00		435.44E+00
			-42.50		436.29E+00
			-42.00		437.09E+00
			-41.50		437.93E+00
			-41.00		438.83E+00
			-40.50		439.69E+00
			-40.00		440.53E+00
			-39.50		441.34E+00
			-39.00		442.11E+00
			-38.50		442.91E+00
			-38.00		443.73E+00
			-37.50		444.60E+00
			-37.00		445.48E+00
			-36.50		446.31E+00
			-36.00		447.14E+00
			-35.50		447.93E+00
			-35.00		448.73E+00
			-34.50		449.60E+00
			-34.00		450.46E+00
			-33.50		451.21E+00
			-33.00		451.92E+00
			-32.50		452.54E+00
			-32.00		453.14E+00
			-31.50		453.92E+00
			-31.00		454.76E+00
			-30.50		455.68E+00
			-30.00		456.61E+00
			-29.50		457.46E+00
			-29.00		458.27E+00
			-28.50		459.01E+00
			-28.00		459.72E+00
			-27.50		460.40E+00
			-27.00		461.10E+00
			-26.50		461.85E+00
			-26.00		462.59E+00
			-25.50		463.30E+00
			-25.00		464.00E+00
			-24.50		464.61E+00
			-24.00		465.24E+00
			-23.50		465.90E+00
			-23.00		466.54E+00
			-22.50		467.25E+00
			-22.00		467.95E+00
			-21.50		468.64E+00
			-21.00		469.35E+00
			-20.50		469.98E+00
			-20.00		470.57E+00
			-19.50		471.14E+00
			-19.00		471.71E+00
			-18.50		472.26E+00
			-18.00		472.78E+00
			-17.50		473.20E+00
			-17.00		473.59E+00
			-16.50		473.99E+00
			-16.00		474.43E+00
			-15.50		474.99E+00
			-15.00		475.58E+00
			-14.50		476.20E+00
			-14.00		476.79E+00
			-13.50		477.24E+00
			-13.00		477.65E+00
			-12.50		477.93E+00
			-12.00		478.17E+00
			-11.50		478.47E+00
			-11.00		478.80E+00
			-10.50		479.18E+00
			-10.00		479.57E+00
			-9.50		479.91E+00
			-9.00		480.21E+00
			-8.50		480.53E+00
			-8.00		480.89E+00
			-7.50		481.27E+00
			-7.00		481.65E+00
			-6.50		481.96E+00
			-6.00		482.21E+00
			-5.50		482.40E+00
			-5.00		482.61E+00
			-4.50		482.86E+00
			-4.00		483.13E+00
			-3.50		483.36E+00
			-3.00		483.54E+00
			-2.50		483.64E+00
			-2.00		483.73E+00
			-1.50		483.83E+00
			-1.00		483.90E+00
			-0.50		483.95E+00
			0.00		483.99E+00
			0.50		483.95E+00
			1.00		483.90E+00
			1.50		483.83E+00
			2.00		483.73E+00
			2.50		483.64E+00
			3.00		483.54E+00
			3.50		483.36E+00
			4.00		483.13E+00
			4.50		482.86E+00
			5.00		482.61E+00
			5.50		482.40E+00
			6.00		482.21E+00
			6.50		481.96E+00
			7.00		481.65E+00
			7.50		481.27E+00
			8.00		480.89E+00
			8.50		480.53E+00
			9.00		480.21E+00
			9.50		479.91E+00
			10.00		479.57E+00
			10.50		479.18E+00
			11.00		478.80E+00
			11.50		478.47E+00
			12.00		478.17E+00
			12.50		477.93E+00
			13.00		477.65E+00
			13.50		477.24E+00
			14.00		476.79E+00
			14.50		476.20E+00
			15.00		475.58E+00
			15.50		474.99E+00
			16.00		474.43E+00
			16.50		473.99E+00
			17.00		473.59E+00
			17.50		473.20E+00
			18.00		472.78E+00
			18.50		472.26E+00
			19.00		471.71E+00
			19.50		471.14E+00
			20.00		470.57E+00
			20.50		469.98E+00
			21.00		469.35E+00
			21.50		468.64E+00
			22.00		467.95E+00
			22.50		467.25E+00
			23.00		466.54E+00
			23.50		465.90E+00
			24.00		465.24E+00
			24.50		464.61E+00
			25.00		464.00E+00
			25.50		463.30E+00
			26.00		462.59E+00
			26.50		461.85E+00
			27.00		461.10E+00
			27.50		460.40E+00
			28.00		459.72E+00
			28.50		459.01E+00
			29.00		458.27E+00
			29.50		457.46E+00
			30.00		456.61E+00
			30.50		455.68E+00
			31.00		454.76E+00
			31.50		453.92E+00
			32.00		453.14E+00
			32.50		452.54E+00
			33.00		451.92E+00
			33.50		451.21E+00
			34.00		450.46E+00
			34.50		449.60E+00
			35.00		448.73E+00
			35.50		447.93E+00
			36.00		447.14E+00
			36.50		446.31E+00
			37.00		445.48E+00
			37.50		444.60E+00
			38.00		443.73E+00
			38.50		442.91E+00
			39.00		442.11E+00
			39.50		441.34E+00
			40.00		440.53E+00
			40.50		439.69E+00
			41.00		438.83E+00
			41.50		437.93E+00
			42.00		437.09E+00
			42.50		436.29E+00
			43.00		435.44E+00
			43.50		434.54E+00
			44.00		433.59E+00
			44.50		432.59E+00
			45.00		431.64E+00
			45.50		430.73E+00
			46.00		429.82E+00
			46.50		428.90E+00
			47.00		427.96E+00
			47.50		427.04E+00
			48.00		426.11E+00
			48.50		425.19E+00
			49.00		424.26E+00
			49.50		423.31E+00
			50.00		422.39E+00
			50.50		421.52E+00
			51.00		420.68E+00
			51.50		419.83E+00
			52.00		418.96E+00
			52.50		418.04E+00
			53.00		417.09E+00
			53.50		416.06E+00
			54.00		415.00E+00
			54.50		414.00E+00
			55.00		413.07E+00
			55.50		412.23E+00
			56.00		411.40E+00
			56.50		410.46E+00
			57.00		409.43E+00
			57.50		408.41E+00
			58.00		407.47E+00
			58.50		406.65E+00
			59.00		405.88E+00
			59.50		405.06E+00
			60.00		404.14E+00
			60.50		403.11E+00
			61.00		402.05E+00
			61.50		401.03E+00
			62.00		400.08E+00
			62.50		399.26E+00
			63.00		398.48E+00
			63.50		397.72E+00
			64.00		396.95E+00
			64.50		396.10E+00
			65.00		395.18E+00
			65.50		394.21E+00
			66.00		393.22E+00
			66.50		392.19E+00
			67.00		391.20E+00
			67.50		390.23E+00
			68.00		389.29E+00
			68.50		388.42E+00
			69.00		387.55E+00
			69.50		386.67E+00
			70.00		385.77E+00
			70.50		384.77E+00
			71.00		383.77E+00
			71.50		382.77E+00
			72.00		381.76E+00
			72.50		380.79E+00
			73.00		379.83E+00
			73.50		378.86E+00
			74.00		377.86E+00
			74.50		376.86E+00
			75.00		375.86E+00
			75.50		374.89E+00
			76.00		373.96E+00
			76.50		373.03E+00
			77.00		372.09E+00
			77.50		371.13E+00
			78.00		370.14E+00
			78.50		369.16E+00
			79.00		368.20E+00
			79.50		367.22E+00
			80.00		366.21E+00
			80.50		365.11E+00
			81.00		363.98E+00
			81.50		362.90E+00
			82.00		361.86E+00
			82.50		360.89E+00
			83.00		359.93E+00
			83.50		358.88E+00
			84.00		357.79E+00
			84.50		356.60E+00
			85.00		355.40E+00
			85.50		354.21E+00
			86.00		352.92E+00
			86.50		351.35E+00
			87.00		349.79E+00
			87.50		348.10E+00
			88.00		346.34E+00
			88.50		344.54E+00
			89.00		342.46E+00
			89.50		339.63E+00
			90.00		336.58E+00
			90.50		332.81E+00
			91.00		328.40E+00
			91.50		322.07E+00
			92.00		314.80E+00
			92.50		304.73E+00
			93.00		293.40E+00
			93.50		279.04E+00
			94.00		263.42E+00
			94.50		245.38E+00
			95.00		226.40E+00
			95.50		206.15E+00
			96.00		185.68E+00
			96.50		165.57E+00
			97.00		145.72E+00
			97.50		126.81E+00
			98.00		108.61E+00
			98.50		92.717E+00
			99.00		78.161E+00
			99.50		66.728E+00
			100.00		56.509E+00
			100.50		49.409E+00
			101.00		43.499E+00
			101.50		39.507E+00
			102.00		36.201E+00
			102.50		33.889E+00
			103.00		31.904E+00
			103.50		30.385E+00
			104.00		29.049E+00
			104.50		27.993E+00
			105.00		27.039E+00
			105.50		26.263E+00
			106.00		25.528E+00
			106.50		24.831E+00
			107.00		24.149E+00
			107.50		23.545E+00
			108.00		22.999E+00
			108.50		22.556E+00
			109.00		22.117E+00
			109.50		21.627E+00
			110.00		21.139E+00
			110.50		20.745E+00
			111.00		20.390E+00
			111.50		20.071E+00
			112.00		19.756E+00
			112.50		19.397E+00
			113.00		19.012E+00
			113.50		18.654E+00
			114.00		18.336E+00
			114.50		18.132E+00
			115.00		17.947E+00
			115.50		17.670E+00
			116.00		17.373E+00
			116.50		17.152E+00
			117.00		16.968E+00
			117.50		16.810E+00
			118.00		16.625E+00
			118.50		16.361E+00
			119.00		16.096E+00
			119.50		15.866E+00
			120.00		15.648E+00
			120.50		15.458E+00
			121.00		15.279E+00
			121.50		15.109E+00
			122.00		14.936E+00
			122.50		14.750E+00
			123.00		14.579E+00
			123.50		14.424E+00
			124.00		14.279E+00
			124.50		14.170E+00
			125.00		14.055E+00
			125.50		13.917E+00
			126.00		13.767E+00
			126.50		13.592E+00
			127.00		13.412E+00
			127.50		13.239E+00
			128.00		13.097E+00
			128.50		12.997E+00
			129.00		12.885E+00
			129.50		12.752E+00
			130.00		12.617E+00
			130.50		12.463E+00
			131.00		12.301E+00
			131.50		12.174E+00
			132.00		12.066E+00
			132.50		11.971E+00
			133.00		11.880E+00
			133.50		11.772E+00
			134.00		11.658E+00
			134.50		11.533E+00
			135.00		11.392E+00
			135.50		11.302E+00
			136.00		11.240E+00
			136.50		11.139E+00
			137.00		11.029E+00
			137.50		10.913E+00
			138.00		10.791E+00
			138.50		10.699E+00
			139.00		10.615E+00
			139.50		10.517E+00
			140.00		10.470E+00
		END_DATA
	END_SCAN  1
	BEGIN_SCAN  2
		TASK_NAME=tba PDD Profiles
		PROGRAM=WaterTankScans
		COMMENT=FBF_SanPietro
		MEAS_DATE=08-Feb-2021 09:38:10
		LINAC=MRIdian
		MODALITY=X
		ISOCENTER=900.00
		INPLANE_AXIS=Y
		CROSSPLANE_AXIS=X
		DEPTH_AXIS=Depth
		INPLANE_AXIS_DIR=TARGET_GUN
		CROSSPLANE_AXIS_DIR=LEFT_RIGHT
		DEPTH_AXIS_DIR=UP_DOWN
		ENERGY=6.00
		NOMINAL_DMAX=15.00
		SSD=850.00
		SCD=450.00
		WEDGE_ANGLE=0.00
		FIELD_INPLANE=199.20
		FIELD_CROSSPLANE=199.20
		FIELD_TYPE=RECTANGULAR
		GANTRY=0.00
		GANTRY_UPRIGHT_POSITION=0
		GANTRY_ROTATION=CW
		COLL_ANGLE=0.00
		COLL_OFFSET_INPLANE=0.00
		COLL_OFFSET_CROSSPLANE=0.00
		SCAN_DEVICE=BeamScan
		SCAN_DEVICE_SETUP=BARA_LEFT_RIGHT
		ELECTROMETER=BeamScan
		RANGE_FIELD=LOW
		RANGE_REFERENCE=MEDIUM
		DETECTOR=THIMBLE_CHAMBER
		DETECTOR_RADIUS=2.40
		DETECTOR_NAME=A28MR
		DETECTOR_SN=-
		DETECTOR_CALIBRATION=588000000.00
		DETECTOR_IS_CALIBRATED=0
		DETECTOR_REFERENCE=THIMBLE_CHAMBER
		DETECTOR_REFERENCE_RADIUS=2.75
		DETECTOR_REFERENCE_NAME=A28MR
		DETECTOR_REFERENCE_SN=—
		DETECTOR_REFERENCE_IS_CALIBRATED=0
		DETECTOR_REFERENCE_CALIBRATION=303000000.00
		DETECTOR_HV=300.0
		DETECTOR_REFERENCE_HV=300.0
		DETECTOR_ORIENTATION=HORIZONTAL
		FILTER=FFF
		SCAN_SPEED_PROFILE=10.00
		SCAN_PROF_SPEED_DEP=DEPTH
		SCAN_SPEED_PDD=0.00
		SCAN_PDD_SPEED_DEP=ENERGY
		DETECTOR_TYPE=A28MR
		REF_FIELD_DEPTH=220.00
		REF_FIELD_DEFINED=ISOCENTER
		REF_FIELD_INPLANE=100.00
		REF_FIELD_CROSSPLANE=100.00
		REF_SCAN_POSITIONS=-85.00;-84.00;-83.00;-82.00;-81.00;-80.00;-79.00;-78.00;-77.00;-76.00;-75.00;-74.00;-73.00;-72.00;-71.00;-70.00;-69.00;-68.00;-67.00;-66.00;-65.00;-64.00;-63.00;-62.00;-61.00;-60.00;-59.00;-58.00;-57.00;-56.00;-55.00;-54.00;-53.00;-52.00;-51.00;-50.00;-49.00;-48.00;-47.00;-46.00;-45.00;-44.00;-43.00;-42.00;-41.00;-40.00;-39.00;-38.00;-37.00;-36.00;-35.00;-34.00;-33.00;-32.00;-31.00;-30.00;-29.00;-28.00;-27.00;-26.00;-25.00;-24.00;-23.00;-22.00;-21.00;-20.00;-19.00;-18.00;-17.00;-16.00;-15.00;-14.00;-13.00;-12.00;-11.00;-10.00;-9.00;-8.00;-7.00;-6.00;-5.00;-4.00;-3.00;-2.00;-1.00;0.00;1.00;2.00;3.00;4.00;5.00;6.00;7.00;8.00;9.00;10.00;11.00;12.00;13.00;14.00;15.00;16.00;17.00;18.00;19.00;20.00;21.00;22.00;23.00;24.00;25.00;26.00;27.00;28.00;29.00;30.00;31.00;32.00;33.00;34.00;35.00;36.00;37.00;38.00;39.00;40.00;41.00;42.00;43.00;44.00;45.00;46.00;47.00;48.00;49.00;50.00;51.00;52.00;53.00;54.00;55.00;56.00;57.00;58.00;59.00;60.00;61.00;62.00;63.00;64.00;65.00;66.00;67.00;68.00;69.00;70.00;71.00;72.00;73.00;74.00;75.00;76.00;77.00;78.00;79.00;80.00;81.00;82.00;83.00;84.00;85.00;
		REF_OVERSCAN_FACTOR=1.00
		SCAN_CURVETYPE=CROSSPLANE_PROFILE
		SCAN_DEPTH=55.00
		SCAN_OFFAXIS_INPLANE=0.00
		SCAN_OFFAXIS_CROSSPLANE=0.00
		SCAN_ANGLE=0.00
		SCAN_DIAGONAL=NOT_DIAGONAL
		SCAN_DIRECTION=POSITIVE
		MEAS_MEDIUM=WATER
		MEAS_PRESET=MEAS_CONTINUOUS_REFERENCE_SCAN
		MEAS_TIME=0.100
		MEAS_UNIT=A.U.
		INCLINATION_ANGLE=0.00
		PRESSURE=1013.25
		TEMPERATURE=20.00
		NORM_TEMPERATURE=20.00
		CORRECTION_FACTOR=1.0000
		EXPECTED_MAX_DOSE_RATE=3.00
		EPOM_DEPTH_SHIFT=0.2
		EPOM_MODE=SHIFT_PROTOCOL
		CORRECTIONS=SMOOTHED_CORR;CAX_CORR;INTERPOLATED_CORR;SYMMETRY_CORR;
		BEGIN_DATA
			-150.00		13.029E+00
			-149.50		12.990E+00
			-149.00		13.079E+00
			-148.50		13.203E+00
			-148.00		13.349E+00
			-147.50		13.507E+00
			-147.00		13.623E+00
			-146.50		13.678E+00
			-146.00		13.754E+00
			-145.50		13.908E+00
			-145.00		14.093E+00
			-144.50		14.243E+00
			-144.00		14.365E+00
			-143.50		14.486E+00
			-143.00		14.643E+00
			-142.50		14.849E+00
			-142.00		15.056E+00
			-141.50		15.191E+00
			-141.00		15.278E+00
			-140.50		15.424E+00
			-140.00		15.591E+00
			-139.50		15.687E+00
			-139.00		15.804E+00
			-138.50		16.017E+00
			-138.00		16.251E+00
			-137.50		16.465E+00
			-137.00		16.633E+00
			-136.50		16.755E+00
			-136.00		16.892E+00
			-135.50		17.062E+00
			-135.00		17.223E+00
			-134.50		17.380E+00
			-134.00		17.590E+00
			-133.50		17.834E+00
			-133.00		18.026E+00
			-132.50		18.194E+00
			-132.00		18.359E+00
			-131.50		18.528E+00
			-131.00		18.768E+00
			-130.50		19.036E+00
			-130.00		19.300E+00
			-129.50		19.546E+00
			-129.00		19.750E+00
			-128.50		19.953E+00
			-128.00		20.168E+00
			-127.50		20.383E+00
			-127.00		20.597E+00
			-126.50		20.830E+00
			-126.00		21.104E+00
			-125.50		21.402E+00
			-125.00		21.686E+00
			-124.50		21.975E+00
			-124.00		22.272E+00
			-123.50		22.561E+00
			-123.00		22.868E+00
			-122.50		23.160E+00
			-122.00		23.431E+00
			-121.50		23.721E+00
			-121.00		24.042E+00
			-120.50		24.401E+00
			-120.00		24.778E+00
			-119.50		25.177E+00
			-119.00		25.582E+00
			-118.50		25.928E+00
			-118.00		26.250E+00
			-117.50		26.618E+00
			-117.00		27.014E+00
			-116.50		27.520E+00
			-116.00		28.099E+00
			-115.50		28.619E+00
			-115.00		29.063E+00
			-114.50		29.491E+00
			-114.00		29.974E+00
			-113.50		30.547E+00
			-113.00		31.207E+00
			-112.50		31.851E+00
			-112.00		32.444E+00
			-111.50		33.056E+00
			-111.00		33.702E+00
			-110.50		34.349E+00
			-110.00		35.041E+00
			-109.50		35.840E+00
			-109.00		36.735E+00
			-108.50		37.743E+00
			-108.00		38.822E+00
			-107.50		40.057E+00
			-107.00		41.424E+00
			-106.50		42.970E+00
			-106.00		44.880E+00
			-105.50		47.541E+00
			-105.00		50.907E+00
			-104.50		55.347E+00
			-104.00		60.854E+00
			-103.50		68.430E+00
			-103.00		77.566E+00
			-102.50		88.674E+00
			-102.00		101.76E+00
			-101.50		116.57E+00
			-101.00		132.51E+00
			-100.50		149.21E+00
			-100.00		166.51E+00
			-99.50		183.98E+00
			-99.00		201.60E+00
			-98.50		219.35E+00
			-98.00		236.73E+00
			-97.50		253.26E+00
			-97.00		268.15E+00
			-96.50		281.57E+00
			-96.00		292.59E+00
			-95.50		302.26E+00
			-95.00		310.10E+00
			-94.50		316.46E+00
			-94.00		321.78E+00
			-93.50		325.98E+00
			-93.00		329.49E+00
			-92.50		332.39E+00
			-92.00		334.86E+00
			-91.50		336.77E+00
			-91.00		338.61E+00
			-90.50		340.45E+00
			-90.00		342.07E+00
			-89.50		343.47E+00
			-89.00		344.89E+00
			-88.50		346.25E+00
			-88.00		347.60E+00
			-87.50		348.96E+00
			-87.00		350.21E+00
			-86.50		351.40E+00
			-86.00		352.63E+00
			-85.50		353.82E+00
			-85.00		355.04E+00
			-84.50		356.27E+00
			-84.00		357.50E+00
			-83.50		358.68E+00
			-83.00		359.81E+00
			-82.50		360.90E+00
			-82.00		361.92E+00
			-81.50		362.94E+00
			-81.00		363.98E+00
			-80.50		365.01E+00
			-80.00		366.07E+00
			-79.50		367.10E+00
			-79.00		368.10E+00
			-78.50		369.20E+00
			-78.00		370.26E+00
			-77.50		371.33E+00
			-77.00		372.39E+00
			-76.50		373.35E+00
			-76.00		374.28E+00
			-75.50		375.21E+00
			-75.00		376.16E+00
			-74.50		377.13E+00
			-74.00		378.11E+00
			-73.50		379.15E+00
			-73.00		380.18E+00
			-72.50		381.22E+00
			-72.00		382.27E+00
			-71.50		383.32E+00
			-71.00		384.30E+00
			-70.50		385.25E+00
			-70.00		386.17E+00
			-69.50		387.05E+00
			-69.00		387.96E+00
			-68.50		388.91E+00
			-68.00		389.90E+00
			-67.50		390.91E+00
			-67.00		391.90E+00
			-66.50		392.83E+00
			-66.00		393.70E+00
			-65.50		394.54E+00
			-65.00		395.38E+00
			-64.50		396.22E+00
			-64.00		397.09E+00
			-63.50		397.96E+00
			-63.00		398.88E+00
			-62.50		399.88E+00
			-62.00		400.90E+00
			-61.50		401.94E+00
			-61.00		402.95E+00
			-60.50		403.86E+00
			-60.00		404.76E+00
			-59.50		405.65E+00
			-59.00		406.52E+00
			-58.50		407.43E+00
			-58.00		408.34E+00
			-57.50		409.26E+00
			-57.00		410.20E+00
			-56.50		411.16E+00
			-56.00		412.14E+00
			-55.50		413.11E+00
			-55.00		414.07E+00
			-54.50		415.01E+00
			-54.00		415.93E+00
			-53.50		416.85E+00
			-53.00		417.68E+00
			-52.50		418.47E+00
			-52.00		419.28E+00
			-51.50		420.10E+00
			-51.00		420.99E+00
			-50.50		421.92E+00
			-50.00		422.91E+00
			-49.50		423.89E+00
			-49.00		424.86E+00
			-48.50		425.88E+00
			-48.00		426.86E+00
			-47.50		427.83E+00
			-47.00		428.70E+00
			-46.50		429.49E+00
			-46.00		430.26E+00
			-45.50		431.04E+00
			-45.00		431.90E+00
			-44.50		432.85E+00
			-44.00		433.86E+00
			-43.50		434.89E+00
			-43.00		435.84E+00
			-42.50		436.70E+00
			-42.00		437.45E+00
			-41.50		438.05E+00
			-41.00		438.73E+00
			-40.50		439.43E+00
			-40.00		440.20E+00
			-39.50		441.04E+00
			-39.00		441.87E+00
			-38.50		442.67E+00
			-38.00		443.47E+00
			-37.50		444.25E+00
			-37.00		445.04E+00
			-36.50		445.84E+00
			-36.00		446.65E+00
			-35.50		447.46E+00
			-35.00		448.23E+00
			-34.50		449.02E+00
			-34.00		449.86E+00
			-33.50		450.69E+00
			-33.00		451.56E+00
			-32.50		452.34E+00
			-32.00		453.04E+00
			-31.50		453.68E+00
			-31.00		454.33E+00
			-30.50		455.03E+00
			-30.00		455.78E+00
			-29.50		456.57E+00
			-29.00		457.36E+00
			-28.50		458.07E+00
			-28.00		458.74E+00
			-27.50		459.36E+00
			-27.00		459.96E+00
			-26.50		460.58E+00
			-26.00		461.22E+00
			-25.50		461.95E+00
			-25.00		462.71E+00
			-24.50		463.51E+00
			-24.00		464.26E+00
			-23.50		464.92E+00
			-23.00		465.43E+00
			-22.50		465.92E+00
			-22.00		466.39E+00
			-21.50		466.84E+00
			-21.00		467.40E+00
			-20.50		468.04E+00
			-20.00		468.68E+00
			-19.50		469.46E+00
			-19.00		470.20E+00
			-18.50		470.84E+00
			-18.00		471.36E+00
			-17.50		471.76E+00
			-17.00		472.09E+00
			-16.50		472.42E+00
			-16.00		472.81E+00
			-15.50		473.23E+00
			-15.00		473.65E+00
			-14.50		474.10E+00
			-14.00		474.51E+00
			-13.50		474.88E+00
			-13.00		475.23E+00
			-12.50		475.51E+00
			-12.00		475.84E+00
			-11.50		476.17E+00
			-11.00		476.55E+00
			-10.50		476.94E+00
			-10.00		477.23E+00
			-9.50		477.53E+00
			-9.00		477.87E+00
			-8.50		478.27E+00
			-8.00		478.71E+00
			-7.50		479.17E+00
			-7.00		479.58E+00
			-6.50		479.89E+00
			-6.00		480.07E+00
			-5.50		480.20E+00
			-5.00		480.23E+00
			-4.50		480.21E+00
			-4.00		480.29E+00
			-3.50		480.40E+00
			-3.00		480.55E+00
			-2.50		480.77E+00
			-2.00		480.90E+00
			-1.50		480.97E+00
			-1.00		481.02E+00
			-0.50		481.01E+00
			0.00		480.99E+00
			0.50		481.01E+00
			1.00		481.02E+00
			1.50		480.97E+00
			2.00		480.90E+00
			2.50		480.77E+00
			3.00		480.55E+00
			3.50		480.40E+00
			4.00		480.29E+00
			4.50		480.21E+00
			5.00		480.23E+00
			5.50		480.20E+00
			6.00		480.07E+00
			6.50		479.89E+00
			7.00		479.58E+00
			7.50		479.17E+00
			8.00		478.71E+00
			8.50		478.27E+00
			9.00		477.87E+00
			9.50		477.53E+00
			10.00		477.23E+00
			10.50		476.94E+00
			11.00		476.55E+00
			11.50		476.17E+00
			12.00		475.84E+00
			12.50		475.51E+00
			13.00		475.23E+00
			13.50		474.88E+00
			14.00		474.51E+00
			14.50		474.10E+00
			15.00		473.65E+00
			15.50		473.23E+00
			16.00		472.81E+00
			16.50		472.42E+00
			17.00		472.09E+00
			17.50		471.76E+00
			18.00		471.36E+00
			18.50		470.84E+00
			19.00		470.20E+00
			19.50		469.46E+00
			20.00		468.68E+00
			20.50		468.04E+00
			21.00		467.40E+00
			21.50		466.84E+00
			22.00		466.39E+00
			22.50		465.92E+00
			23.00		465.43E+00
			23.50		464.92E+00
			24.00		464.26E+00
			24.50		463.51E+00
			25.00		462.71E+00
			25.50		461.95E+00
			26.00		461.22E+00
			26.50		460.58E+00
			27.00		459.96E+00
			27.50		459.36E+00
			28.00		458.74E+00
			28.50		458.07E+00
			29.00		457.36E+00
			29.50		456.57E+00
			30.00		455.78E+00
			30.50		455.03E+00
			31.00		454.33E+00
			31.50		453.68E+00
			32.00		453.04E+00
			32.50		452.34E+00
			33.00		451.56E+00
			33.50		450.69E+00
			34.00		449.86E+00
			34.50		449.02E+00
			35.00		448.23E+00
			35.50		447.46E+00
			36.00		446.65E+00
			36.50		445.84E+00
			37.00		445.04E+00
			37.50		444.25E+00
			38.00		443.47E+00
			38.50		442.67E+00
			39.00		441.87E+00
			39.50		441.04E+00
			40.00		440.20E+00
			40.50		439.43E+00
			41.00		438.73E+00
			41.50		438.05E+00
			42.00		437.45E+00
			42.50		436.70E+00
			43.00		435.84E+00
			43.50		434.89E+00
			44.00		433.86E+00
			44.50		432.85E+00
			45.00		431.90E+00
			45.50		431.04E+00
			46.00		430.26E+00
			46.50		429.49E+00
			47.00		428.70E+00
			47.50		427.83E+00
			48.00		426.86E+00
			48.50		425.88E+00
			49.00		424.86E+00
			49.50		423.89E+00
			50.00		422.91E+00
			50.50		421.92E+00
			51.00		420.99E+00
			51.50		420.10E+00
			52.00		419.28E+00
			52.50		418.47E+00
			53.00		417.68E+00
			53.50		416.85E+00
			54.00		415.93E+00
			54.50		415.01E+00
			55.00		414.07E+00
			55.50		413.11E+00
			56.00		412.14E+00
			56.50		411.16E+00
			57.00		410.20E+00
			57.50		409.26E+00
			58.00		408.34E+00
			58.50		407.43E+00
			59.00		406.52E+00
			59.50		405.65E+00
			60.00		404.76E+00
			60.50		403.86E+00
			61.00		402.95E+00
			61.50		401.94E+00
			62.00		400.90E+00
			62.50		399.88E+00
			63.00		398.88E+00
			63.50		397.96E+00
			64.00		397.09E+00
			64.50		396.22E+00
			65.00		395.38E+00
			65.50		394.54E+00
			66.00		393.70E+00
			66.50		392.83E+00
			67.00		391.90E+00
			67.50		390.91E+00
			68.00		389.90E+00
			68.50		388.91E+00
			69.00		387.96E+00
			69.50		387.05E+00
			70.00		386.17E+00
			70.50		385.25E+00
			71.00		384.30E+00
			71.50		383.32E+00
			72.00		382.27E+00
			72.50		381.22E+00
			73.00		380.18E+00
			73.50		379.15E+00
			74.00		378.11E+00
			74.50		377.13E+00
			75.00		376.16E+00
			75.50		375.21E+00
			76.00		374.28E+00
			76.50		373.35E+00
			77.00		372.39E+00
			77.50		371.33E+00
			78.00		370.26E+00
			78.50		369.20E+00
			79.00		368.10E+00
			79.50		367.10E+00
			80.00		366.07E+00
			80.50		365.01E+00
			81.00		363.98E+00
			81.50		362.94E+00
			82.00		361.92E+00
			82.50		360.90E+00
			83.00		359.81E+00
			83.50		358.68E+00
			84.00		357.50E+00
			84.50		356.27E+00
			85.00		355.04E+00
			85.50		353.82E+00
			86.00		352.63E+00
			86.50		351.40E+00
			87.00		350.21E+00
			87.50		348.96E+00
			88.00		347.60E+00
			88.50		346.25E+00
			89.00		344.89E+00
			89.50		343.47E+00
			90.00		342.07E+00
			90.50		340.45E+00
			91.00		338.61E+00
			91.50		336.77E+00
			92.00		334.86E+00
			92.50		332.39E+00
			93.00		329.49E+00
			93.50		325.98E+00
			94.00		321.78E+00
			94.50		316.46E+00
			95.00		310.10E+00
			95.50		302.26E+00
			96.00		292.59E+00
			96.50		281.57E+00
			97.00		268.15E+00
			97.50		253.26E+00
			98.00		236.73E+00
			98.50		219.35E+00
			99.00		201.60E+00
			99.50		183.98E+00
			100.00		166.51E+00
			100.50		149.21E+00
			101.00		132.51E+00
			101.50		116.57E+00
			102.00		101.76E+00
			102.50		88.674E+00
			103.00		77.566E+00
			103.50		68.430E+00
			104.00		60.854E+00
			104.50		55.347E+00
			105.00		50.907E+00
			105.50		47.541E+00
			106.00		44.880E+00
			106.50		42.970E+00
			107.00		41.424E+00
			107.50		40.057E+00
			108.00		38.822E+00
			108.50		37.743E+00
			109.00		36.735E+00
			109.50		35.840E+00
			110.00		35.041E+00
			110.50		34.349E+00
			111.00		33.702E+00
