BEGIN_SCAN_DATA
	FORMAT=CC-Export V1.9                  
	FILE_CREATION_DATE=25-Apr-2022 16:30:59
	LAST_MODIFIED=25-Apr-2022 16:30:59
	BEGIN_SCAN  1
		TASK_NAME=tba PDD Profiles
		PROGRAM=WaterTankScans
		COMMENT=FBF_SanPietro
		MEAS_DATE=08-Feb-2021 09:38:10
		LINAC=MRIdian
		MODALITY=X
		ISOCENTER=900.00
		INPLANE_AXIS=Y
		CROSSPLANE_AXIS=X
		DEPTH_AXIS=Depth
		INPLANE_AXIS_DIR=TARGET_GUN
		CROSSPLANE_AXIS_DIR=LEFT_RIGHT
		DEPTH_AXIS_DIR=UP_DOWN
		ENERGY=6.00
		NOMINAL_DMAX=15.00
		SSD=850.00
		SCD=450.00
		WEDGE_ANGLE=0.00
		FIELD_INPLANE=199.20
		FIELD_CROSSPLANE=199.20
		FIELD_TYPE=RECTANGULAR
		GANTRY=0.00
		GANTRY_UPRIGHT_POSITION=0
		GANTRY_ROTATION=CW
		COLL_ANGLE=0.00
		COLL_OFFSET_INPLANE=0.00
		COLL_OFFSET_CROSSPLANE=0.00
		SCAN_DEVICE=BeamScan
		SCAN_DEVICE_SETUP=BARA_LEFT_RIGHT
		ELECTROMETER=BeamScan
		RANGE_FIELD=LOW
		RANGE_REFERENCE=MEDIUM
		DETECTOR=THIMBLE_CHAMBER
		DETECTOR_RADIUS=2.40
		DETECTOR_NAME=A28MR
		DETECTOR_SN=-
		DETECTOR_CALIBRATION=588000000.00
		DETECTOR_IS_CALIBRATED=0
		DETECTOR_REFERENCE=THIMBLE_CHAMBER
		DETECTOR_REFERENCE_RADIUS=2.75
		DETECTOR_REFERENCE_NAME=A28MR
		DETECTOR_REFERENCE_SN=—
		DETECTOR_REFERENCE_IS_CALIBRATED=0
		DETECTOR_REFERENCE_CALIBRATION=303000000.00
		DETECTOR_HV=300.0
		DETECTOR_REFERENCE_HV=300.0
		DETECTOR_ORIENTATION=HORIZONTAL
		FILTER=FFF
		SCAN_SPEED_PROFILE=10.00
		SCAN_PROF_SPEED_DEP=DEPTH
		SCAN_SPEED_PDD=0.00
		SCAN_PDD_SPEED_DEP=ENERGY
		DETECTOR_TYPE=A28MR
		REF_FIELD_DEPTH=220.00
		REF_FIELD_DEFINED=ISOCENTER
		REF_FIELD_INPLANE=100.00
		REF_FIELD_CROSSPLANE=100.00
		REF_SCAN_POSITIONS=-85.00;-84.00;-83.00;-82.00;-81.00;-80.00;-79.00;-78.00;-77.00;-76.00;-75.00;-74.00;-73.00;-72.00;-71.00;-70.00;-69.00;-68.00;-67.00;-66.00;-65.00;-64.00;-63.00;-62.00;-61.00;-60.00;-59.00;-58.00;-57.00;-56.00;-55.00;-54.00;-53.00;-52.00;-51.00;-50.00;-49.00;-48.00;-47.00;-46.00;-45.00;-44.00;-43.00;-42.00;-41.00;-40.00;-39.00;-38.00;-37.00;-36.00;-35.00;-34.00;-33.00;-32.00;-31.00;-30.00;-29.00;-28.00;-27.00;-26.00;-25.00;-24.00;-23.00;-22.00;-21.00;-20.00;-19.00;-18.00;-17.00;-16.00;-15.00;-14.00;-13.00;-12.00;-11.00;-10.00;-9.00;-8.00;-7.00;-6.00;-5.00;-4.00;-3.00;-2.00;-1.00;0.00;1.00;2.00;3.00;4.00;5.00;6.00;7.00;8.00;9.00;10.00;11.00;12.00;13.00;14.00;15.00;16.00;17.00;18.00;19.00;20.00;21.00;22.00;23.00;24.00;25.00;26.00;27.00;28.00;29.00;30.00;31.00;32.00;33.00;34.00;35.00;36.00;37.00;38.00;39.00;40.00;41.00;42.00;43.00;44.00;45.00;46.00;47.00;48.00;49.00;50.00;51.00;52.00;53.00;54.00;55.00;56.00;57.00;58.00;59.00;60.00;61.00;62.00;63.00;64.00;65.00;66.00;67.00;68.00;69.00;70.00;71.00;72.00;73.00;74.00;75.00;76.00;77.00;78.00;79.00;80.00;81.00;82.00;83.00;84.00;85.00;
		REF_OVERSCAN_FACTOR=1.00
		SCAN_CURVETYPE=CROSSPLANE_PROFILE
		SCAN_DEPTH=20.00
		SCAN_OFFAXIS_INPLANE=0.00
		SCAN_OFFAXIS_CROSSPLANE=0.00
		SCAN_ANGLE=0.00
		SCAN_DIAGONAL=NOT_DIAGONAL
		SCAN_DIRECTION=POSITIVE
		MEAS_MEDIUM=WATER
		MEAS_PRESET=MEAS_CONTINUOUS_REFERENCE_SCAN
		MEAS_TIME=0.100
		MEAS_UNIT=A.U.
		INCLINATION_ANGLE=0.00
		PRESSURE=1013.25
		TEMPERATURE=20.00
		NORM_TEMPERATURE=20.00
		CORRECTION_FACTOR=1.0000
		EXPECTED_MAX_DOSE_RATE=3.00
		EPOM_DEPTH_SHIFT=0.2
		EPOM_MODE=SHIFT_PROTOCOL
		CORRECTIONS=SMOOTHED_CORR;CAX_CORR;INTERPOLATED_CORR;SYMMETRY_CORR;
		BEGIN_DATA
			-140.00		10.470E+00
			-139.90		10.479E+00
			-139.80		10.489E+00
			-139.70		10.498E+00
			-139.60		10.508E+00
			-139.50		10.517E+00
			-139.40		10.537E+00
			-139.30		10.556E+00
			-139.20		10.576E+00
			-139.10		10.595E+00
			-139.00		10.615E+00
			-138.90		10.632E+00
			-138.80		10.649E+00
			-138.70		10.665E+00
			-138.60		10.682E+00
			-138.50		10.699E+00
			-138.40		10.717E+00
			-138.30		10.736E+00
			-138.20		10.754E+00
			-138.10		10.773E+00
			-138.00		10.791E+00
			-137.90		10.815E+00
			-137.80		10.840E+00
			-137.70		10.864E+00
			-137.60		10.889E+00
			-137.50		10.913E+00
			-137.40		10.936E+00
			-137.30		10.959E+00
			-137.20		10.983E+00
			-137.10		11.006E+00
			-137.00		11.029E+00
			-136.90		11.051E+00
			-136.80		11.073E+00
			-136.70		11.095E+00
			-136.60		11.117E+00
			-136.50		11.139E+00
			-136.40		11.159E+00
			-136.30		11.179E+00
			-136.20		11.200E+00
			-136.10		11.220E+00
			-136.00		11.240E+00
			-135.90		11.252E+00
			-135.80		11.265E+00
			-135.70		11.277E+00
			-135.60		11.290E+00
			-135.50		11.302E+00
			-135.40		11.320E+00
			-135.30		11.338E+00
			-135.20		11.356E+00
			-135.10		11.374E+00
			-135.00		11.392E+00
			-134.90		11.420E+00
			-134.80		11.448E+00
			-134.70		11.477E+00
			-134.60		11.505E+00
			-134.50		11.533E+00
			-134.40		11.558E+00
			-134.30		11.583E+00
			-134.20		11.608E+00
			-134.10		11.633E+00
			-134.00		11.658E+00
			-133.90		11.681E+00
			-133.80		11.704E+00
			-133.70		11.726E+00
			-133.60		11.749E+00
			-133.50		11.772E+00
			-133.40		11.794E+00
			-133.30		11.815E+00
			-133.20		11.837E+00
			-133.10		11.858E+00
			-133.00		11.880E+00
			-132.90		11.898E+00
			-132.80		11.916E+00
			-132.70		11.935E+00
			-132.60		11.953E+00
			-132.50		11.971E+00
			-132.40		11.990E+00
			-132.30		12.009E+00
			-132.20		12.028E+00
			-132.10		12.047E+00
			-132.00		12.066E+00
			-131.90		12.088E+00
			-131.80		12.109E+00
			-131.70		12.131E+00
			-131.60		12.152E+00
			-131.50		12.174E+00
			-131.40		12.199E+00
			-131.30		12.225E+00
			-131.20		12.250E+00
			-131.10		12.276E+00
			-131.00		12.301E+00
			-130.90		12.333E+00
			-130.80		12.366E+00
			-130.70		12.398E+00
			-130.60		12.431E+00
			-130.50		12.463E+00
			-130.40		12.494E+00
			-130.30		12.525E+00
			-130.20		12.555E+00
			-130.10		12.586E+00
			-130.00		12.617E+00
			-129.90		12.644E+00
			-129.80		12.671E+00
			-129.70		12.698E+00
			-129.60		12.725E+00
			-129.50		12.752E+00
			-129.40		12.779E+00
			-129.30		12.805E+00
			-129.20		12.832E+00
			-129.10		12.858E+00
			-129.00		12.885E+00
			-128.90		12.907E+00
			-128.80		12.930E+00
			-128.70		12.952E+00
			-128.60		12.975E+00
			-128.50		12.997E+00
			-128.40		13.017E+00
			-128.30		13.037E+00
			-128.20		13.057E+00
			-128.10		13.077E+00
			-128.00		13.097E+00
			-127.90		13.125E+00
			-127.80		13.154E+00
			-127.70		13.182E+00
			-127.60		13.211E+00
			-127.50		13.239E+00
			-127.40		13.274E+00
			-127.30		13.308E+00
			-127.20		13.343E+00
			-127.10		13.377E+00
			-127.00		13.412E+00
			-126.90		13.448E+00
			-126.80		13.484E+00
			-126.70		13.520E+00
			-126.60		13.556E+00
			-126.50		13.592E+00
			-126.40		13.627E+00
			-126.30		13.662E+00
			-126.20		13.697E+00
			-126.10		13.732E+00
			-126.00		13.767E+00
			-125.90		13.797E+00
			-125.80		13.827E+00
			-125.70		13.857E+00
			-125.60		13.887E+00
			-125.50		13.917E+00
			-125.40		13.945E+00
			-125.30		13.972E+00
			-125.20		14.000E+00
			-125.10		14.027E+00
			-125.00		14.055E+00
			-124.90		14.078E+00
			-124.80		14.101E+00
			-124.70		14.124E+00
			-124.60		14.147E+00
			-124.50		14.170E+00
			-124.40		14.192E+00
			-124.30		14.214E+00
			-124.20		14.235E+00
			-124.10		14.257E+00
			-124.00		14.279E+00
			-123.90		14.308E+00
			-123.80		14.337E+00
			-123.70		14.366E+00
			-123.60		14.395E+00
			-123.50		14.424E+00
			-123.40		14.455E+00
			-123.30		14.486E+00
			-123.20		14.517E+00
			-123.10		14.548E+00
			-123.00		14.579E+00
			-122.90		14.613E+00
			-122.80		14.647E+00
			-122.70		14.682E+00
			-122.60		14.716E+00
			-122.50		14.750E+00
			-122.40		14.787E+00
			-122.30		14.824E+00
			-122.20		14.862E+00
			-122.10		14.899E+00
			-122.00		14.936E+00
			-121.90		14.971E+00
			-121.80		15.005E+00
			-121.70		15.040E+00
			-121.60		15.074E+00
			-121.50		15.109E+00
			-121.40		15.143E+00
			-121.30		15.177E+00
			-121.20		15.211E+00
			-121.10		15.245E+00
			-121.00		15.279E+00
			-120.90		15.315E+00
			-120.80		15.351E+00
			-120.70		15.386E+00
			-120.60		15.422E+00
			-120.50		15.458E+00
			-120.40		15.496E+00
			-120.30		15.534E+00
			-120.20		15.572E+00
			-120.10		15.610E+00
			-120.00		15.648E+00
			-119.90		15.692E+00
			-119.80		15.735E+00
			-119.70		15.779E+00
			-119.60		15.822E+00
			-119.50		15.866E+00
			-119.40		15.912E+00
			-119.30		15.958E+00
			-119.20		16.004E+00
			-119.10		16.050E+00
			-119.00		16.096E+00
			-118.90		16.149E+00
			-118.80		16.202E+00
			-118.70		16.255E+00
			-118.60		16.308E+00
			-118.50		16.361E+00
			-118.40		16.414E+00
			-118.30		16.467E+00
			-118.20		16.519E+00
			-118.10		16.572E+00
			-118.00		16.625E+00
			-117.90		16.662E+00
			-117.80		16.699E+00
			-117.70		16.736E+00
			-117.60		16.773E+00
			-117.50		16.810E+00
			-117.40		16.842E+00
			-117.30		16.873E+00
			-117.20		16.905E+00
			-117.10		16.936E+00
			-117.00		16.968E+00
			-116.90		17.005E+00
			-116.80		17.042E+00
			-116.70		17.078E+00
			-116.60		17.115E+00
			-116.50		17.152E+00
			-116.40		17.196E+00
			-116.30		17.240E+00
			-116.20		17.285E+00
			-116.10		17.329E+00
			-116.00		17.373E+00
			-115.90		17.432E+00
			-115.80		17.492E+00
			-115.70		17.551E+00
			-115.60		17.611E+00
			-115.50		17.670E+00
			-115.40		17.725E+00
			-115.30		17.781E+00
			-115.20		17.836E+00
			-115.10		17.892E+00
			-115.00		17.947E+00
			-114.90		17.984E+00
			-114.80		18.021E+00
			-114.70		18.058E+00
			-114.60		18.095E+00
			-114.50		18.132E+00
			-114.40		18.173E+00
			-114.30		18.214E+00
			-114.20		18.254E+00
			-114.10		18.295E+00
			-114.00		18.336E+00
			-113.90		18.400E+00
			-113.80		18.463E+00
			-113.70		18.527E+00
			-113.60		18.590E+00
			-113.50		18.654E+00
			-113.40		18.726E+00
			-113.30		18.797E+00
			-113.20		18.869E+00
			-113.10		18.940E+00
			-113.00		19.012E+00
			-112.90		19.089E+00
			-112.80		19.166E+00
			-112.70		19.243E+00
			-112.60		19.320E+00
			-112.50		19.397E+00
			-112.40		19.469E+00
			-112.30		19.541E+00
			-112.20		19.612E+00
			-112.10		19.684E+00
			-112.00		19.756E+00
			-111.90		19.819E+00
			-111.80		19.882E+00
			-111.70		19.945E+00
			-111.60		20.008E+00
			-111.50		20.071E+00
			-111.40		20.135E+00
			-111.30		20.199E+00
			-111.20		20.262E+00
			-111.10		20.326E+00
			-111.00		20.390E+00
			-110.90		20.461E+00
			-110.80		20.532E+00
			-110.70		20.603E+00
			-110.60		20.674E+00
			-110.50		20.745E+00
			-110.40		20.824E+00
			-110.30		20.903E+00
			-110.20		20.981E+00
			-110.10		21.060E+00
			-110.00		21.139E+00
			-109.90		21.237E+00
			-109.80		21.334E+00
			-109.70		21.432E+00
			-109.60		21.529E+00
			-109.50		21.627E+00
			-109.40		21.725E+00
			-109.30		21.823E+00
			-109.20		21.921E+00
			-109.10		22.019E+00
			-109.00		22.117E+00
			-108.90		22.205E+00
			-108.80		22.293E+00
			-108.70		22.380E+00
			-108.60		22.468E+00
			-108.50		22.556E+00
			-108.40		22.645E+00
			-108.30		22.733E+00
			-108.20		22.822E+00
			-108.10		22.910E+00
			-108.00		22.999E+00
			-107.90		23.108E+00
			-107.80		23.217E+00
			-107.70		23.327E+00
			-107.60		23.436E+00
			-107.50		23.545E+00
			-107.40		23.666E+00
			-107.30		23.787E+00
			-107.20		23.907E+00
			-107.10		24.028E+00
			-107.00		24.149E+00
			-106.90		24.285E+00
			-106.80		24.422E+00
			-106.70		24.558E+00
			-106.60		24.695E+00
			-106.50		24.831E+00
			-106.40		24.970E+00
			-106.30		25.110E+00
			-106.20		25.249E+00
			-106.10		25.389E+00
			-106.00		25.528E+00
			-105.90		25.675E+00
			-105.80		25.822E+00
			-105.70		25.969E+00
			-105.60		26.116E+00
			-105.50		26.263E+00
			-105.40		26.418E+00
			-105.30		26.573E+00
			-105.20		26.729E+00
			-105.10		26.884E+00
			-105.00		27.039E+00
			-104.90		27.230E+00
			-104.80		27.421E+00
			-104.70		27.611E+00
			-104.60		27.802E+00
			-104.50		27.993E+00
			-104.40		28.204E+00
			-104.30		28.415E+00
			-104.20		28.627E+00
			-104.10		28.838E+00
			-104.00		29.049E+00
			-103.90		29.316E+00
			-103.80		29.583E+00
			-103.70		29.851E+00
			-103.60		30.118E+00
			-103.50		30.385E+00
			-103.40		30.689E+00
			-103.30		30.993E+00
			-103.20		31.296E+00
			-103.10		31.600E+00
			-103.00		31.904E+00
			-102.90		32.301E+00
			-102.80		32.698E+00
			-102.70		33.095E+00
			-102.60		33.492E+00
			-102.50		33.889E+00
			-102.40		34.351E+00
			-102.30		34.814E+00
			-102.20		35.276E+00
			-102.10		35.739E+00
			-102.00		36.201E+00
			-101.90		36.862E+00
			-101.80		37.523E+00
			-101.70		38.185E+00
			-101.60		38.846E+00
			-101.50		39.507E+00
			-101.40		40.305E+00
			-101.30		41.104E+00
			-101.20		41.902E+00
			-101.10		42.701E+00
			-101.00		43.499E+00
			-100.90		44.681E+00
			-100.80		45.863E+00
			-100.70		47.045E+00
			-100.60		48.227E+00
			-100.50		49.409E+00
			-100.40		50.829E+00
			-100.30		52.249E+00
			-100.20		53.669E+00
			-100.10		55.089E+00
			-100.00		56.509E+00
			-99.90		58.553E+00
			-99.80		60.597E+00
			-99.70		62.640E+00
			-99.60		64.684E+00
			-99.50		66.728E+00
			-99.40		69.015E+00
			-99.30		71.301E+00
			-99.20		73.588E+00
			-99.10		75.874E+00
			-99.00		78.161E+00
			-98.90		81.072E+00
			-98.80		83.983E+00
			-98.70		86.895E+00
			-98.60		89.806E+00
			-98.50		92.717E+00
			-98.40		95.896E+00
			-98.30		99.074E+00
			-98.20		102.25E+00
			-98.10		105.43E+00
			-98.00		108.61E+00
			-97.90		112.25E+00
			-97.80		115.89E+00
			-97.70		119.53E+00
			-97.60		123.17E+00
			-97.50		126.81E+00
			-97.40		130.59E+00
			-97.30		134.37E+00
			-97.20		138.16E+00
			-97.10		141.94E+00
			-97.00		145.72E+00
			-96.90		149.69E+00
			-96.80		153.66E+00
			-96.70		157.63E+00
			-96.60		161.60E+00
			-96.50		165.57E+00
			-96.40		169.59E+00
			-96.30		173.61E+00
			-96.20		177.64E+00
			-96.10		181.66E+00
			-96.00		185.68E+00
			-95.90		189.77E+00
			-95.80		193.87E+00
			-95.70		197.96E+00
			-95.60		202.06E+00
			-95.50		206.15E+00
			-95.40		210.20E+00
			-95.30		214.25E+00
			-95.20		218.30E+00
			-95.10		222.35E+00
			-95.00		226.40E+00
			-94.90		230.20E+00
			-94.80		233.99E+00
			-94.70		237.79E+00
			-94.60		241.58E+00
			-94.50		245.38E+00
			-94.40		248.99E+00
			-94.30		252.60E+00
			-94.20		256.20E+00
			-94.10		259.81E+00
			-94.00		263.42E+00
			-93.90		266.54E+00
			-93.80		269.67E+00
			-93.70		272.79E+00
			-93.60		275.92E+00
			-93.50		279.04E+00
			-93.40		281.91E+00
			-93.30		284.78E+00
			-93.20		287.66E+00
			-93.10		290.53E+00
			-93.00		293.40E+00
			-92.90		295.67E+00
			-92.80		297.93E+00
			-92.70		300.20E+00
			-92.60		302.46E+00
			-92.50		304.73E+00
			-92.40		306.74E+00
			-92.30		308.76E+00
			-92.20		310.77E+00
			-92.10		312.79E+00
			-92.00		314.80E+00
			-91.90		316.25E+00
			-91.80		317.71E+00
			-91.70		319.16E+00
			-91.60		320.62E+00
			-91.50		322.07E+00
			-91.40		323.34E+00
			-91.30		324.60E+00
			-91.20		325.87E+00
			-91.10		327.13E+00
			-91.00		328.40E+00
			-90.90		329.28E+00
			-90.80		330.16E+00
			-90.70		331.05E+00
			-90.60		331.93E+00
			-90.50		332.81E+00
			-90.40		333.56E+00
			-90.30		334.32E+00
			-90.20		335.07E+00
			-90.10		335.83E+00
			-90.00		336.58E+00
			-89.90		337.19E+00
			-89.80		337.80E+00
			-89.70		338.41E+00
			-89.60		339.02E+00
			-89.50		339.63E+00
			-89.40		340.20E+00
			-89.30		340.76E+00
			-89.20		341.33E+00
			-89.10		341.89E+00
			-89.00		342.46E+00
			-88.90		342.88E+00
			-88.80		343.29E+00
			-88.70		343.71E+00
			-88.60		344.12E+00
			-88.50		344.54E+00
			-88.40		344.90E+00
			-88.30		345.26E+00
			-88.20		345.62E+00
			-88.10		345.98E+00
			-88.00		346.34E+00
			-87.90		346.69E+00
			-87.80		347.04E+00
			-87.70		347.40E+00
			-87.60		347.75E+00
			-87.50		348.10E+00
			-87.40		348.44E+00
			-87.30		348.78E+00
			-87.20		349.11E+00
			-87.10		349.45E+00
			-87.00		349.79E+00
			-86.90		350.10E+00
			-86.80		350.41E+00
			-86.70		350.73E+00
			-86.60		351.04E+00
			-86.50		351.35E+00
			-86.40		351.66E+00
			-86.30		351.98E+00
			-86.20		352.29E+00
			-86.10		352.61E+00
			-86.00		352.92E+00
			-85.90		353.18E+00
			-85.80		353.44E+00
			-85.70		353.69E+00
			-85.60		353.95E+00
			-85.50		354.21E+00
			-85.40		354.45E+00
			-85.30		354.69E+00
			-85.20		354.92E+00
			-85.10		355.16E+00
			-85.00		355.40E+00
			-84.90		355.64E+00
			-84.80		355.88E+00
			-84.70		356.12E+00
			-84.60		356.36E+00
			-84.50		356.60E+00
			-84.40		356.84E+00
			-84.30		357.08E+00
			-84.20		357.31E+00
			-84.10		357.55E+00
			-84.00		357.79E+00
			-83.90		358.01E+00
			-83.80		358.23E+00
			-83.70		358.44E+00
			-83.60		358.66E+00
			-83.50		358.88E+00
			-83.40		359.09E+00
			-83.30		359.30E+00
			-83.20		359.51E+00
			-83.10		359.72E+00
			-83.00		359.93E+00
			-82.90		360.12E+00
			-82.80		360.31E+00
			-82.70		360.51E+00
			-82.60		360.70E+00
			-82.50		360.89E+00
			-82.40		361.08E+00
			-82.30		361.28E+00
			-82.20		361.47E+00
			-82.10		361.67E+00
			-82.00		361.86E+00
			-81.90		362.07E+00
			-81.80		362.28E+00
			-81.70		362.48E+00
			-81.60		362.69E+00
			-81.50		362.90E+00
			-81.40		363.12E+00
			-81.30		363.33E+00
			-81.20		363.55E+00
			-81.10		363.76E+00
			-81.00		363.98E+00
			-80.90		364.21E+00
			-80.80		364.43E+00
			-80.70		364.66E+00
			-80.60		364.88E+00
			-80.50		365.11E+00
			-80.40		365.33E+00
			-80.30		365.55E+00
			-80.20		365.77E+00
			-80.10		365.99E+00
			-80.00		366.21E+00
			-79.90		366.41E+00
			-79.80		366.61E+00
			-79.70		366.82E+00
			-79.60		367.02E+00
			-79.50		367.22E+00
			-79.40		367.42E+00
			-79.30		367.61E+00
			-79.20		367.81E+00
			-79.10		368.00E+00
			-79.00		368.20E+00
			-78.90		368.39E+00
			-78.80		368.58E+00
			-78.70		368.78E+00
			-78.60		368.97E+00
			-78.50		369.16E+00
			-78.40		369.36E+00
			-78.30		369.55E+00
			-78.20		369.75E+00
			-78.10		369.94E+00
			-78.00		370.14E+00
			-77.90		370.34E+00
			-77.80		370.54E+00
			-77.70		370.73E+00
			-77.60		370.93E+00
			-77.50		371.13E+00
			-77.40		371.32E+00
			-77.30		371.51E+00
			-77.20		371.71E+00
			-77.10		371.90E+00
			-77.00		372.09E+00
			-76.90		372.28E+00
			-76.80		372.47E+00
			-76.70		372.65E+00
			-76.60		372.84E+00
			-76.50		373.03E+00
			-76.40		373.22E+00
			-76.30		373.40E+00
			-76.20		373.59E+00
			-76.10		373.77E+00
			-76.00		373.96E+00
			-75.90		374.15E+00
			-75.80		374.33E+00
			-75.70		374.52E+00
			-75.60		374.70E+00
			-75.50		374.89E+00
			-75.40		375.08E+00
			-75.30		375.28E+00
			-75.20		375.47E+00
			-75.10		375.67E+00
			-75.00		375.86E+00
			-74.90		376.06E+00
			-74.80		376.26E+00
			-74.70		376.46E+00
			-74.60		376.66E+00
			-74.50		376.86E+00
			-74.40		377.06E+00
			-74.30		377.26E+00
			-74.20		377.46E+00
			-74.10		377.66E+00
			-74.00		377.86E+00
			-73.90		378.06E+00
			-73.80		378.26E+00
			-73.70		378.46E+00
			-73.60		378.66E+00
			-73.50		378.86E+00
			-73.40		379.05E+00
			-73.30		379.25E+00
			-73.20		379.44E+00
			-73.10		379.64E+00
			-73.00		379.83E+00
			-72.90		380.02E+00
			-72.80		380.21E+00
			-72.70		380.41E+00
			-72.60		380.60E+00
			-72.50		380.79E+00
			-72.40		380.98E+00
			-72.30		381.18E+00
			-72.20		381.37E+00
			-72.10		381.57E+00
			-72.00		381.76E+00
			-71.90		381.96E+00
			-71.80		382.16E+00
			-71.70		382.37E+00
			-71.60		382.57E+00
			-71.50		382.77E+00
			-71.40		382.97E+00
			-71.30		383.17E+00
			-71.20		383.37E+00
			-71.10		383.57E+00
			-71.00		383.77E+00
			-70.90		383.97E+00
			-70.80		384.17E+00
			-70.70		384.37E+00
			-70.60		384.57E+00
			-70.50		384.77E+00
			-70.40		384.97E+00
			-70.30		385.17E+00
			-70.20		385.37E+00
			-70.10		385.57E+00
			-70.00		385.77E+00
			-69.90		385.95E+00
			-69.80		386.13E+00
			-69.70		386.31E+00
			-69.60		386.49E+00
			-69.50		386.67E+00
			-69.40		386.85E+00
			-69.30		387.02E+00
			-69.20		387.20E+00
			-69.10		387.37E+00
			-69.00		387.55E+00
			-68.90		387.72E+00
			-68.80		387.90E+00
			-68.70		388.07E+00
			-68.60		388.25E+00
			-68.50		388.42E+00
			-68.40		388.59E+00
			-68.30		388.77E+00
			-68.20		388.94E+00
			-68.10		389.12E+00
			-68.00		389.29E+00
			-67.90		389.48E+00
			-67.80		389.67E+00
			-67.70		389.85E+00
			-67.60		390.04E+00
			-67.50		390.23E+00
			-67.40		390.42E+00
			-67.30		390.62E+00
			-67.20		390.81E+00
			-67.10		391.01E+00
			-67.00		391.20E+00
			-66.90		391.40E+00
			-66.80		391.60E+00
			-66.70		391.79E+00
			-66.60		391.99E+00
			-66.50		392.19E+00
			-66.40		392.40E+00
			-66.30		392.60E+00
			-66.20		392.81E+00
			-66.10		393.01E+00
			-66.00		393.22E+00
			-65.90		393.42E+00
			-65.80		393.62E+00
			-65.70		393.81E+00
			-65.60		394.01E+00
			-65.50		394.21E+00
			-65.40		394.40E+00
			-65.30		394.60E+00
			-65.20		394.79E+00
			-65.10		394.99E+00
			-65.00		395.18E+00
			-64.90		395.36E+00
			-64.80		395.55E+00
			-64.70		395.73E+00
			-64.60		395.92E+00
			-64.50		396.10E+00
			-64.40		396.27E+00
			-64.30		396.44E+00
			-64.20		396.61E+00
			-64.10		396.78E+00
			-64.00		396.95E+00
			-63.90		397.10E+00
			-63.80		397.26E+00
			-63.70		397.41E+00
			-63.60		397.57E+00
			-63.50		397.72E+00
			-63.40		397.87E+00
			-63.30		398.02E+00
			-63.20		398.18E+00
			-63.10		398.33E+00
			-63.00		398.48E+00
			-62.90		398.64E+00
			-62.80		398.79E+00
			-62.70		398.95E+00
			-62.60		399.10E+00
			-62.50		399.26E+00
			-62.40		399.42E+00
			-62.30		399.59E+00
			-62.20		399.75E+00
			-62.10		399.92E+00
			-62.00		400.08E+00
			-61.90		400.27E+00
			-61.80		400.46E+00
			-61.70		400.65E+00
			-61.60		400.84E+00
			-61.50		401.03E+00
			-61.40		401.23E+00
			-61.30		401.44E+00
			-61.20		401.64E+00
			-61.10		401.85E+00
			-61.00		402.05E+00
			-60.90		402.26E+00
			-60.80		402.47E+00
			-60.70		402.69E+00
			-60.60		402.90E+00
			-60.50		403.11E+00
			-60.40		403.32E+00
			-60.30		403.52E+00
			-60.20		403.73E+00
			-60.10		403.93E+00
			-60.00		404.14E+00
			-59.90		404.32E+00
			-59.80		404.51E+00
			-59.70		404.69E+00
			-59.60		404.88E+00
			-59.50		405.06E+00
			-59.40		405.22E+00
			-59.30		405.39E+00
			-59.20		405.55E+00
			-59.10		405.72E+00
			-59.00		405.88E+00
			-58.90		406.03E+00
			-58.80		406.19E+00
			-58.70		406.34E+00
			-58.60		406.50E+00
			-58.50		406.65E+00
			-58.40		406.81E+00
			-58.30		406.98E+00
			-58.20		407.14E+00
			-58.10		407.31E+00
			-58.00		407.47E+00
			-57.90		407.66E+00
			-57.80		407.85E+00
			-57.70		408.03E+00
			-57.60		408.22E+00
			-57.50		408.41E+00
			-57.40		408.61E+00
			-57.30		408.82E+00
			-57.20		409.02E+00
			-57.10		409.23E+00
			-57.00		409.43E+00
			-56.90		409.64E+00
			-56.80		409.84E+00
			-56.70		410.05E+00
			-56.60		410.25E+00
			-56.50		410.46E+00
			-56.40		410.65E+00
			-56.30		410.84E+00
			-56.20		411.02E+00
			-56.10		411.21E+00
			-56.00		411.40E+00
			-55.90		411.57E+00
			-55.80		411.73E+00
			-55.70		411.90E+00
			-55.60		412.06E+00
			-55.50		412.23E+00
			-55.40		412.40E+00
			-55.30		412.57E+00
			-55.20		412.73E+00
			-55.10		412.90E+00
			-55.00		413.07E+00
			-54.90		413.26E+00
			-54.80		413.44E+00
			-54.70		413.63E+00
			-54.60		413.81E+00
			-54.50		414.00E+00
			-54.40		414.20E+00
			-54.30		414.40E+00
			-54.20		414.60E+00
			-54.10		414.80E+00
			-54.00		415.00E+00
			-53.90		415.21E+00
			-53.80		415.42E+00
			-53.70		415.64E+00
			-53.60		415.85E+00
			-53.50		416.06E+00
			-53.40		416.27E+00
			-53.30		416.47E+00
			-53.20		416.68E+00
			-53.10		416.88E+00
			-53.00		417.09E+00
			-52.90		417.28E+00
			-52.80		417.47E+00
			-52.70		417.66E+00
			-52.60		417.85E+00
			-52.50		418.04E+00
			-52.40		418.22E+00
			-52.30		418.41E+00
			-52.20		418.59E+00
			-52.10		418.78E+00
			-52.00		418.96E+00
			-51.90		419.13E+00
			-51.80		419.31E+00
			-51.70		419.48E+00
			-51.60		419.66E+00
			-51.50		419.83E+00
			-51.40		420.00E+00
			-51.30		420.17E+00
			-51.20		420.34E+00
			-51.10		420.51E+00
			-51.00		420.68E+00
			-50.90		420.85E+00
			-50.80		421.02E+00
			-50.70		421.18E+00
			-50.60		421.35E+00
			-50.50		421.52E+00
			-50.40		421.69E+00
			-50.30		421.87E+00
			-50.20		422.04E+00
			-50.10		422.22E+00
			-50.00		422.39E+00
			-49.90		422.57E+00
			-49.80		422.76E+00
			-49.70		422.94E+00
			-49.60		423.13E+00
			-49.50		423.31E+00
			-49.40		423.50E+00
			-49.30		423.69E+00
			-49.20		423.88E+00
			-49.10		424.07E+00
			-49.00		424.26E+00
			-48.90		424.45E+00
			-48.80		424.63E+00
			-48.70		424.82E+00
			-48.60		425.00E+00
			-48.50		425.19E+00
			-48.40		425.37E+00
			-48.30		425.56E+00
			-48.20		425.74E+00
			-48.10		425.93E+00
			-48.00		426.11E+00
			-47.90		426.30E+00
			-47.80		426.48E+00
			-47.70		426.67E+00
			-47.60		426.85E+00
			-47.50		427.04E+00
			-47.40		427.22E+00
			-47.30		427.41E+00
			-47.20		427.59E+00
			-47.10		427.78E+00
			-47.00		427.96E+00
			-46.90		428.15E+00
			-46.80		428.34E+00
			-46.70		428.52E+00
			-46.60		428.71E+00
			-46.50		428.90E+00
			-46.40		429.08E+00
			-46.30		429.27E+00
			-46.20		429.45E+00
			-46.10		429.64E+00
			-46.00		429.82E+00
			-45.90		430.00E+00
			-45.80		430.18E+00
			-45.70		430.37E+00
			-45.60		430.55E+00
			-45.50		430.73E+00
			-45.40		430.91E+00
			-45.30		431.09E+00
			-45.20		431.28E+00
			-45.10		431.46E+00
			-45.00		431.64E+00
			-44.90		431.83E+00
			-44.80		432.02E+00
			-44.70		432.21E+00
			-44.60		432.40E+00
			-44.50		432.59E+00
			-44.40		432.79E+00
			-44.30		432.99E+00
			-44.20		433.19E+00
			-44.10		433.39E+00
			-44.00		433.59E+00
			-43.90		433.78E+00
			-43.80		433.97E+00
			-43.70		434.16E+00
			-43.60		434.35E+00
			-43.50		434.54E+00
			-43.40		434.72E+00
			-43.30		434.90E+00
			-43.20		435.08E+00
			-43.10		435.26E+00
			-43.00		435.44E+00
			-42.90		435.61E+00
			-42.80		435.78E+00
			-42.70		435.95E+00
			-42.60		436.12E+00
			-42.50		436.29E+00
			-42.40		436.45E+00
			-42.30		436.61E+00
			-42.20		436.77E+00
			-42.10		436.93E+00
			-42.00		437.09E+00
			-41.90		437.26E+00
			-41.80		437.43E+00
			-41.70		437.59E+00
			-41.60		437.76E+00
			-41.50		437.93E+00
			-41.40		438.11E+00
			-41.30		438.29E+00
			-41.20		438.47E+00
			-41.10		438.65E+00
			-41.00		438.83E+00
			-40.90		439.00E+00
			-40.80		439.17E+00
			-40.70		439.35E+00
			-40.60		439.52E+00
			-40.50		439.69E+00
			-40.40		439.86E+00
			-40.30		440.03E+00
			-40.20		440.19E+00
			-40.10		440.36E+00
			-40.00		440.53E+00
			-39.90		440.69E+00
			-39.80		440.85E+00
			-39.70		441.02E+00
			-39.60		441.18E+00
			-39.50		441.34E+00
			-39.40		441.49E+00
			-39.30		441.65E+00
			-39.20		441.80E+00
			-39.10		441.96E+00
			-39.00		442.11E+00
			-38.90		442.27E+00
			-38.80		442.43E+00
			-38.70		442.59E+00
			-38.60		442.75E+00
			-38.50		442.91E+00
			-38.40		443.07E+00
			-38.30		443.24E+00
			-38.20		443.40E+00
			-38.10		443.57E+00
			-38.00		443.73E+00
			-37.90		443.90E+00
			-37.80		444.08E+00
			-37.70		444.25E+00
			-37.60		444.43E+00
			-37.50		444.60E+00
			-37.40		444.78E+00
			-37.30		444.95E+00
			-37.20		445.13E+00
			-37.10		445.30E+00
			-37.00		445.48E+00
			-36.90		445.65E+00
			-36.80		445.81E+00
			-36.70		445.98E+00
			-36.60		446.14E+00
			-36.50		446.31E+00
			-36.40		446.48E+00
			-36.30		446.64E+00
			-36.20		446.81E+00
			-36.10		446.97E+00
			-36.00		447.14E+00
			-35.90		447.30E+00
			-35.80		447.46E+00
			-35.70		447.61E+00
			-35.60		447.77E+00
			-35.50		447.93E+00
			-35.40		448.09E+00
			-35.30		448.25E+00
			-35.20		448.41E+00
			-35.10		448.57E+00
			-35.00		448.73E+00
			-34.90		448.90E+00
			-34.80		449.08E+00
			-34.70		449.25E+00
			-34.60		449.43E+00
			-34.50		449.60E+00
			-34.40		449.77E+00
			-34.30		449.94E+00
			-34.20		450.12E+00
			-34.10		450.29E+00
			-34.00		450.46E+00
			-33.90		450.61E+00
			-33.80		450.76E+00
			-33.70		450.91E+00
			-33.60		451.06E+00
			-33.50		451.21E+00
			-33.40		451.35E+00
			-33.30		451.49E+00
			-33.20		451.64E+00
			-33.10		451.78E+00
			-33.00		451.92E+00
			-32.90		452.04E+00
			-32.80		452.17E+00
			-32.70		452.29E+00
			-32.60		452.42E+00
			-32.50		452.54E+00
			-32.40		452.66E+00
			-32.30		452.78E+00
			-32.20		452.90E+00
			-32.10		453.02E+00
			-32.00		453.14E+00
			-31.90		453.30E+00
			-31.80		453.45E+00
			-31.70		453.61E+00
			-31.60		453.76E+00
			-31.50		453.92E+00
			-31.40		454.09E+00
			-31.30		454.26E+00
			-31.20		454.42E+00
			-31.10		454.59E+00
			-31.00		454.76E+00
			-30.90		454.94E+00
			-30.80		455.13E+00
			-30.70		455.31E+00
			-30.60		455.50E+00
			-30.50		455.68E+00
			-30.40		455.87E+00
			-30.30		456.05E+00
			-30.20		456.24E+00
			-30.10		456.42E+00
			-30.00		456.61E+00
			-29.90		456.78E+00
			-29.80		456.95E+00
			-29.70		457.12E+00
			-29.60		457.29E+00
			-29.50		457.46E+00
			-29.40		457.62E+00
			-29.30		457.78E+00
			-29.20		457.95E+00
			-29.10		458.11E+00
			-29.00		458.27E+00
			-28.90		458.42E+00
			-28.80		458.57E+00
			-28.70		458.71E+00
			-28.60		458.86E+00
			-28.50		459.01E+00
			-28.40		459.15E+00
			-28.30		459.29E+00
			-28.20		459.44E+00
			-28.10		459.58E+00
			-28.00		459.72E+00
			-27.90		459.86E+00
			-27.80		459.99E+00
			-27.70		460.13E+00
			-27.60		460.26E+00
			-27.50		460.40E+00
			-27.40		460.54E+00
			-27.30		460.68E+00
			-27.20		460.82E+00
			-27.10		460.96E+00
			-27.00		461.10E+00
			-26.90		461.25E+00
			-26.80		461.40E+00
			-26.70		461.55E+00
			-26.60		461.70E+00
			-26.50		461.85E+00
			-26.40		462.00E+00
			-26.30		462.15E+00
			-26.20		462.29E+00
			-26.10		462.44E+00
			-26.00		462.59E+00
			-25.90		462.73E+00
			-25.80		462.87E+00
			-25.70		463.02E+00
			-25.60		463.16E+00
			-25.50		463.30E+00
			-25.40		463.44E+00
			-25.30		463.58E+00
			-25.20		463.72E+00
			-25.10		463.86E+00
			-25.00		464.00E+00
			-24.90		464.12E+00
			-24.80		464.24E+00
			-24.70		464.37E+00
			-24.60		464.49E+00
			-24.50		464.61E+00
			-24.40		464.74E+00
			-24.30		464.86E+00
			-24.20		464.99E+00
			-24.10		465.11E+00
			-24.00		465.24E+00
			-23.90		465.37E+00
			-23.80		465.50E+00
			-23.70		465.64E+00
			-23.60		465.77E+00
			-23.50		465.90E+00
			-23.40		466.03E+00
			-23.30		466.16E+00
			-23.20		466.28E+00
			-23.10		466.41E+00
			-23.00		466.54E+00
			-22.90		466.68E+00
			-22.80		466.82E+00
			-22.70		466.97E+00
			-22.60		467.11E+00
			-22.50		467.25E+00
			-22.40		467.39E+00
			-22.30		467.53E+00
			-22.20		467.67E+00
			-22.10		467.81E+00
			-22.00		467.95E+00
			-21.90		468.09E+00
			-21.80		468.23E+00
			-21.70		468.36E+00
			-21.60		468.50E+00
			-21.50		468.64E+00
			-21.40		468.78E+00
			-21.30		468.92E+00
			-21.20		469.07E+00
			-21.10		469.21E+00
			-21.00		469.35E+00
			-20.90		469.48E+00
			-20.80		469.60E+00
			-20.70		469.73E+00
			-20.60		469.85E+00
			-20.50		469.98E+00
