BEGIN_SCAN_DATA
	FORMAT=CC-Export V1.9                  
	FILE_CREATION_DATE=16-Apr-2022 17:05:34
	LAST_MODIFIED=16-Apr-2022 17:05:34
	BEGIN_SCAN  1
		TASK_NAME=tba PDD Profiles
		PROGRAM=WaterTankScans
		COMMENT=Average
		MEAS_DATE=15-Mar-2022 16:25:44
		LINAC=MRIdian
		MODALITY=X
		ISOCENTER=900.00
		INPLANE_AXIS=Y
		CROSSPLANE_AXIS=X
		DEPTH_AXIS=Depth
		INPLANE_AXIS_DIR=TARGET_GUN
		CROSSPLANE_AXIS_DIR=LEFT_RIGHT
		DEPTH_AXIS_DIR=UP_DOWN
		ENERGY=6.00
		NOMINAL_DMAX=15.00
		SSD=850.00
		SCD=450.00
		WEDGE_ANGLE=0.00
		FIELD_INPLANE=199.00
		FIELD_CROSSPLANE=199.00
		FIELD_TYPE=RECTANGULAR
		GANTRY=0.00
		GANTRY_UPRIGHT_POSITION=0
		GANTRY_ROTATION=CW
		COLL_ANGLE=0.00
		COLL_OFFSET_INPLANE=0.00
		COLL_OFFSET_CROSSPLANE=0.00
		SCAN_DEVICE=BeamScan
		SCAN_DEVICE_SETUP=BARA_LEFT_RIGHT
		ELECTROMETER=BeamScan
		RANGE_FIELD=LOW
		RANGE_REFERENCE=MEDIUM
		DETECTOR=THIMBLE_CHAMBER
		DETECTOR_RADIUS=2.40
		DETECTOR_NAME=A28MR
		DETECTOR_SN=-
		DETECTOR_CALIBRATION=588000000.00
		DETECTOR_IS_CALIBRATED=0
		DETECTOR_REFERENCE=THIMBLE_CHAMBER
		DETECTOR_REFERENCE_RADIUS=2.75
		DETECTOR_REFERENCE_NAME=A28MR
		DETECTOR_REFERENCE_SN=—
		DETECTOR_REFERENCE_IS_CALIBRATED=0
		DETECTOR_REFERENCE_CALIBRATION=303000000.00
		DETECTOR_HV=300.0
		DETECTOR_REFERENCE_HV=300.0
		DETECTOR_ORIENTATION=HORIZONTAL
		FILTER=FFF
		SCAN_SPEED_PROFILE=10.00
		SCAN_PROF_SPEED_DEP=DEPTH
		SCAN_SPEED_PDD=0.00
		SCAN_PDD_SPEED_DEP=ENERGY
		DETECTOR_TYPE=A28MR
		REF_FIELD_DEPTH=50.00
		REF_FIELD_DEFINED=ISOCENTER
		REF_FIELD_INPLANE=100.00
		REF_FIELD_CROSSPLANE=100.00
		REF_SCAN_POSITIONS=-85.00;-84.00;-83.00;-82.00;-81.00;-80.00;-79.00;-78.00;-77.00;-76.00;-75.00;-74.00;-73.00;-72.00;-71.00;-70.00;-69.00;-68.00;-67.00;-66.00;-65.00;-64.00;-63.00;-62.00;-61.00;-60.00;-59.00;-58.00;-57.00;-56.00;-55.00;-54.00;-53.00;-52.00;-51.00;-50.00;-49.00;-48.00;-47.00;-46.00;-45.00;-44.00;-43.00;-42.00;-41.00;-40.00;-39.00;-38.00;-37.00;-36.00;-35.00;-34.00;-33.00;-32.00;-31.00;-30.00;-29.00;-28.00;-27.00;-26.00;-25.00;-24.00;-23.00;-22.00;-21.00;-20.00;-19.00;-18.00;-17.00;-16.00;-15.00;-14.00;-13.00;-12.00;-11.00;-10.00;-9.00;-8.00;-7.00;-6.00;-5.00;-4.00;-3.00;-2.00;-1.00;0.00;1.00;2.00;3.00;4.00;5.00;6.00;7.00;8.00;9.00;10.00;11.00;12.00;13.00;14.00;15.00;16.00;17.00;18.00;19.00;20.00;21.00;22.00;23.00;24.00;25.00;26.00;27.00;28.00;29.00;30.00;31.00;32.00;33.00;34.00;35.00;36.00;37.00;38.00;39.00;40.00;41.00;42.00;43.00;44.00;45.00;46.00;47.00;48.00;49.00;50.00;51.00;52.00;53.00;54.00;55.00;56.00;57.00;58.00;59.00;60.00;61.00;62.00;63.00;64.00;65.00;66.00;67.00;68.00;69.00;70.00;71.00;72.00;73.00;74.00;75.00;76.00;77.00;78.00;79.00;80.00;81.00;82.00;83.00;84.00;85.00;
		REF_OVERSCAN_FACTOR=1.00
		SCAN_CURVETYPE=CROSSPLANE_PROFILE
		SCAN_DEPTH=20.00
		SCAN_OFFAXIS_INPLANE=0.00
		SCAN_OFFAXIS_CROSSPLANE=0.00
		SCAN_ANGLE=0.00
		SCAN_DIAGONAL=NOT_DIAGONAL
		SCAN_DIRECTION=POSITIVE
		MEAS_MEDIUM=WATER
		MEAS_PRESET=MEAS_CONTINUOUS_REFERENCE_SCAN
		MEAS_TIME=0.100
		MEAS_UNIT=A.U.
		INCLINATION_ANGLE=0.00
		PRESSURE=1013.25
		TEMPERATURE=20.00
		NORM_TEMPERATURE=20.00
		CORRECTION_FACTOR=1.0000
		EXPECTED_MAX_DOSE_RATE=3.00
		EPOM_DEPTH_SHIFT=0.2
		EPOM_MODE=SHIFT_PROTOCOL
		CORRECTIONS=CAX_CORR;SMOOTHED_CORR;INTERPOLATED_CORR;SYMMETRY_CORR;ADD_CURVES_CORR;MODIFIED_CORR;
		BEGIN_DATA
			-140.00		10.122E+00
			-139.50		10.122E+00
			-139.00		10.122E+00
			-138.50		10.122E+00
			-138.00		10.582E+00
			-137.50		10.582E+00
			-137.00		10.582E+00
			-136.50		10.582E+00
			-136.00		11.042E+00
			-135.50		11.042E+00
			-135.00		11.042E+00
			-134.50		11.042E+00
			-134.00		11.502E+00
			-133.50		11.502E+00
			-133.00		11.502E+00
			-132.50		11.502E+00
			-132.00		11.502E+00
			-131.50		11.963E+00
			-131.00		11.963E+00
			-130.50		11.963E+00
			-130.00		11.963E+00
			-129.50		12.423E+00
			-129.00		12.423E+00
			-128.50		12.423E+00
			-128.00		12.883E+00
			-127.50		12.883E+00
			-127.00		12.883E+00
			-126.50		12.883E+00
			-126.00		13.343E+00
			-125.50		13.343E+00
			-125.00		13.343E+00
			-124.50		13.803E+00
			-124.00		13.803E+00
			-123.50		13.803E+00
			-123.00		14.263E+00
			-122.50		14.263E+00
			-122.00		14.263E+00
			-121.50		14.723E+00
			-121.00		14.723E+00
			-120.50		15.183E+00
			-120.00		15.183E+00
			-119.50		15.183E+00
			-119.00		15.643E+00
			-118.50		15.643E+00
			-118.00		16.104E+00
			-117.50		16.104E+00
			-117.00		16.564E+00
			-116.50		16.564E+00
			-116.00		17.024E+00
			-115.50		17.024E+00
			-115.00		17.484E+00
			-114.50		17.484E+00
			-114.00		17.944E+00
			-113.50		17.944E+00
			-113.00		18.404E+00
			-112.50		18.864E+00
			-112.00		19.324E+00
			-111.50		19.324E+00
			-111.00		19.784E+00
			-110.50		20.244E+00
			-110.00		20.704E+00
			-109.50		21.165E+00
			-109.00		21.625E+00
			-108.50		21.625E+00
			-108.00		22.085E+00
			-107.50		23.005E+00
			-107.00		23.465E+00
			-106.50		23.925E+00
			-106.00		24.845E+00
			-105.50		25.306E+00
			-105.00		26.226E+00
			-104.50		27.146E+00
			-104.00		28.526E+00
			-103.50		29.906E+00
			-103.00		31.287E+00
			-102.50		33.587E+00
			-102.00		35.888E+00
			-101.50		39.108E+00
			-101.00		43.249E+00
			-100.50		49.231E+00
			-100.00		56.132E+00
			-99.50		67.175E+00
			-99.00		78.217E+00
			-98.50		92.940E+00
			-98.00		108.12E+00
			-97.50		125.61E+00
			-97.00		144.01E+00
			-96.50		162.88E+00
			-96.00		182.20E+00
			-95.50		201.06E+00
			-95.00		219.93E+00
			-94.50		237.41E+00
			-94.00		254.44E+00
			-93.50		268.24E+00
			-93.00		281.58E+00
			-92.50		291.24E+00
			-92.00		300.45E+00
			-91.50		306.43E+00
			-91.00		312.41E+00
			-90.50		316.09E+00
			-90.00		319.77E+00
			-89.50		322.53E+00
			-89.00		324.83E+00
			-88.50		327.13E+00
			-88.00		328.97E+00
			-87.50		330.81E+00
			-87.00		332.19E+00
			-86.50		334.03E+00
			-86.00		335.41E+00
			-85.50		336.79E+00
			-85.00		337.71E+00
			-84.50		339.09E+00
			-84.00		340.01E+00
			-83.50		340.93E+00
			-83.00		342.31E+00
			-82.50		343.23E+00
			-82.00		344.15E+00
			-81.50		345.07E+00
			-81.00		346.46E+00
			-80.50		347.38E+00
			-80.00		348.76E+00
			-79.50		349.68E+00
			-79.00		350.60E+00
			-78.50		351.52E+00
			-78.00		352.44E+00
			-77.50		353.36E+00
			-77.00		354.28E+00
			-76.50		355.20E+00
			-76.00		356.12E+00
			-75.50		357.04E+00
			-75.00		357.96E+00
			-74.50		359.34E+00
			-74.00		360.26E+00
			-73.50		361.18E+00
			-73.00		362.10E+00
			-72.50		363.02E+00
			-72.00		363.94E+00
			-71.50		364.86E+00
			-71.00		365.78E+00
			-70.50		366.70E+00
			-70.00		367.62E+00
			-69.50		368.54E+00
			-69.00		369.46E+00
			-68.50		370.38E+00
			-68.00		371.30E+00
			-67.50		372.22E+00
			-67.00		373.14E+00
			-66.50		374.06E+00
			-66.00		374.98E+00
			-65.50		375.90E+00
			-65.00		376.82E+00
			-64.50		377.74E+00
			-64.00		378.66E+00
			-63.50		379.58E+00
			-63.00		380.04E+00
			-62.50		380.96E+00
			-62.00		381.88E+00
			-61.50		382.80E+00
			-61.00		383.72E+00
			-60.50		384.64E+00
			-60.00		385.56E+00
			-59.50		386.48E+00
			-59.00		386.94E+00
			-58.50		387.86E+00
			-58.00		388.78E+00
			-57.50		389.70E+00
			-57.00		390.62E+00
			-56.50		391.55E+00
			-56.00		392.47E+00
			-55.50		393.39E+00
			-55.00		394.31E+00
			-54.50		395.23E+00
			-54.00		396.15E+00
			-53.50		397.07E+00
			-53.00		397.99E+00
			-52.50		398.91E+00
			-52.00		399.83E+00
			-51.50		400.75E+00
			-51.00		401.21E+00
			-50.50		402.13E+00
			-50.00		403.05E+00
			-49.50		403.97E+00
			-49.00		404.89E+00
			-48.50		405.81E+00
			-48.00		406.73E+00
			-47.50		407.65E+00
			-47.00		408.57E+00
			-46.50		409.49E+00
			-46.00		410.41E+00
			-45.50		411.33E+00
			-45.00		412.25E+00
			-44.50		413.17E+00
			-44.00		414.09E+00
			-43.50		415.01E+00
			-43.00		415.93E+00
			-42.50		416.85E+00
			-42.00		417.31E+00
			-41.50		418.23E+00
			-41.00		419.15E+00
			-40.50		420.07E+00
			-40.00		420.53E+00
			-39.50		421.45E+00
			-39.00		422.37E+00
			-38.50		422.83E+00
			-38.00		423.75E+00
			-37.50		424.67E+00
			-37.00		425.59E+00
			-36.50		426.51E+00
			-36.00		426.97E+00
			-35.50		427.89E+00
			-35.00		428.81E+00
			-34.50		429.27E+00
			-34.00		430.19E+00
			-33.50		431.11E+00
			-33.00		431.57E+00
			-32.50		432.49E+00
			-32.00		432.95E+00
			-31.50		433.87E+00
			-31.00		434.33E+00
			-30.50		435.25E+00
			-30.00		435.71E+00
			-29.50		436.63E+00
			-29.00		437.56E+00
			-28.50		438.02E+00
			-28.00		438.94E+00
			-27.50		439.40E+00
			-27.00		440.32E+00
			-26.50		440.78E+00
			-26.00		441.24E+00
			-25.50		442.16E+00
			-25.00		443.08E+00
			-24.50		443.54E+00
			-24.00		444.00E+00
			-23.50		444.92E+00
			-23.00		445.38E+00
			-22.50		445.84E+00
			-22.00		446.76E+00
			-21.50		447.22E+00
			-21.00		447.68E+00
			-20.50		448.60E+00
			-20.00		449.06E+00
			-19.50		449.52E+00
			-19.00		449.98E+00
			-18.50		450.44E+00
			-18.00		450.90E+00
			-17.50		451.36E+00
			-17.00		451.82E+00
			-16.50		452.28E+00
			-16.00		452.74E+00
			-15.50		453.20E+00
			-15.00		453.66E+00
			-14.50		454.12E+00
			-14.00		454.58E+00
			-13.50		454.58E+00
			-13.00		455.04E+00
			-12.50		455.50E+00
			-12.00		455.96E+00
			-11.50		455.96E+00
			-11.00		456.42E+00
			-10.50		456.88E+00
			-10.00		456.88E+00
			-9.50		457.34E+00
			-9.00		457.34E+00
			-8.50		457.80E+00
			-8.00		458.26E+00
			-7.50		458.26E+00
			-7.00		458.72E+00
			-6.50		458.72E+00
			-6.00		458.72E+00
			-5.50		459.18E+00
			-5.00		459.18E+00
			-4.50		459.64E+00
			-4.00		459.64E+00
			-3.50		460.10E+00
			-3.00		460.10E+00
			-2.50		460.10E+00
			-2.00		460.10E+00
			-1.50		460.10E+00
			-1.00		460.10E+00
			-0.50		460.10E+00
			0.00		460.10E+00
			0.50		460.10E+00
			1.00		460.10E+00
			1.50		460.10E+00
			2.00		460.10E+00
			2.50		460.10E+00
			3.00		460.10E+00
			3.50		460.10E+00
			4.00		459.64E+00
			4.50		459.64E+00
			5.00		459.18E+00
			5.50		459.18E+00
			6.00		458.72E+00
			6.50		458.72E+00
			7.00		458.72E+00
			7.50		458.26E+00
			8.00		458.26E+00
			8.50		457.80E+00
			9.00		457.34E+00
			9.50		457.34E+00
			10.00		456.88E+00
			10.50		456.88E+00
			11.00		456.42E+00
			11.50		455.96E+00
			12.00		455.96E+00
			12.50		455.50E+00
			13.00		455.04E+00
			13.50		454.58E+00
			14.00		454.58E+00
			14.50		454.12E+00
			15.00		453.66E+00
			15.50		453.20E+00
			16.00		452.74E+00
			16.50		452.28E+00
			17.00		451.82E+00
			17.50		451.36E+00
			18.00		450.90E+00
			18.50		450.44E+00
			19.00		449.98E+00
			19.50		449.52E+00
			20.00		449.06E+00
			20.50		448.60E+00
			21.00		447.68E+00
			21.50		447.22E+00
			22.00		446.76E+00
			22.50		445.84E+00
			23.00		445.38E+00
			23.50		444.92E+00
			24.00		444.00E+00
			24.50		443.54E+00
			25.00		443.08E+00
			25.50		442.16E+00
			26.00		441.24E+00
			26.50		440.78E+00
			27.00		440.32E+00
			27.50		439.40E+00
			28.00		438.94E+00
			28.50		438.02E+00
			29.00		437.56E+00
			29.50		436.63E+00
			30.00		435.71E+00
			30.50		435.25E+00
			31.00		434.33E+00
			31.50		433.87E+00
			32.00		432.95E+00
			32.50		432.49E+00
			33.00		431.57E+00
			33.50		431.11E+00
			34.00		430.19E+00
			34.50		429.27E+00
			35.00		428.81E+00
			35.50		427.89E+00
			36.00		426.97E+00
			36.50		426.51E+00
			37.00		425.59E+00
			37.50		424.67E+00
			38.00		423.75E+00
			38.50		422.83E+00
			39.00		422.37E+00
			39.50		421.45E+00
			40.00		420.53E+00
			40.50		420.07E+00
			41.00		419.15E+00
			41.50		418.23E+00
			42.00		417.31E+00
			42.50		416.85E+00
			43.00		415.93E+00
			43.50		415.01E+00
			44.00		414.09E+00
			44.50		413.17E+00
			45.00		412.25E+00
			45.50		411.33E+00
			46.00		410.41E+00
			46.50		409.49E+00
			47.00		408.57E+00
			47.50		407.65E+00
			48.00		406.73E+00
			48.50		405.81E+00
			49.00		404.89E+00
			49.50		403.97E+00
			50.00		403.05E+00
			50.50		402.13E+00
			51.00		401.21E+00
			51.50		400.75E+00
			52.00		399.83E+00
			52.50		398.91E+00
			53.00		397.99E+00
			53.50		397.07E+00
			54.00		396.15E+00
			54.50		395.23E+00
			55.00		394.31E+00
			55.50		393.39E+00
			56.00		392.47E+00
			56.50		391.55E+00
			57.00		390.62E+00
			57.50		389.70E+00
			58.00		388.78E+00
			58.50		387.86E+00
			59.00		386.94E+00
			59.50		386.48E+00
			60.00		385.56E+00
			60.50		384.64E+00
			61.00		383.72E+00
			61.50		382.80E+00
			62.00		381.88E+00
			62.50		380.96E+00
			63.00		380.04E+00
			63.50		379.58E+00
			64.00		378.66E+00
			64.50		377.74E+00
			65.00		376.82E+00
			65.50		375.90E+00
			66.00		374.98E+00
			66.50		374.06E+00
			67.00		373.14E+00
			67.50		372.22E+00
			68.00		371.30E+00
			68.50		370.38E+00
			69.00		369.46E+00
			69.50		368.54E+00
			70.00		367.62E+00
			70.50		366.70E+00
			71.00		365.78E+00
			71.50		364.86E+00
			72.00		363.94E+00
			72.50		363.02E+00
			73.00		362.10E+00
			73.50		361.18E+00
			74.00		360.26E+00
			74.50		359.34E+00
			75.00		357.96E+00
			75.50		357.04E+00
			76.00		356.12E+00
			76.50		355.20E+00
			77.00		354.28E+00
			77.50		353.36E+00
			78.00		352.44E+00
			78.50		351.52E+00
			79.00		350.60E+00
			79.50		349.68E+00
			80.00		348.76E+00
			80.50		347.38E+00
			81.00		346.46E+00
			81.50		345.07E+00
			82.00		344.15E+00
			82.50		343.23E+00
			83.00		342.31E+00
			83.50		340.93E+00
			84.00		340.01E+00
			84.50		339.09E+00
			85.00		337.71E+00
			85.50		336.79E+00
			86.00		335.41E+00
			86.50		334.03E+00
			87.00		332.19E+00
			87.50		330.81E+00
			88.00		328.97E+00
			88.50		327.13E+00
			89.00		324.83E+00
			89.50		322.53E+00
			90.00		319.77E+00
			90.50		316.09E+00
			91.00		312.41E+00
			91.50		306.43E+00
			92.00		300.45E+00
			92.50		291.24E+00
			93.00		281.58E+00
			93.50		268.24E+00
			94.00		254.44E+00
			94.50		237.41E+00
			95.00		219.93E+00
			95.50		201.06E+00
			96.00		182.20E+00
			96.50		162.88E+00
			97.00		144.01E+00
			97.50		125.61E+00
			98.00		108.12E+00
			98.50		92.940E+00
			99.00		78.217E+00
			99.50		67.175E+00
			100.00		56.132E+00
			100.50		49.231E+00
			101.00		43.249E+00
			101.50		39.108E+00
			102.00		35.888E+00
			102.50		33.587E+00
			103.00		31.287E+00
			103.50		29.906E+00
			104.00		28.526E+00
			104.50		27.146E+00
			105.00		26.226E+00
			105.50		25.306E+00
			106.00		24.845E+00
			106.50		23.925E+00
			107.00		23.465E+00
			107.50		23.005E+00
			108.00		22.085E+00
			108.50		21.625E+00
			109.00		21.625E+00
			109.50		21.165E+00
			110.00		20.704E+00
			110.50		20.244E+00
			111.00		19.784E+00
			111.50		19.324E+00
			112.00		19.324E+00
			112.50		18.864E+00
			113.00		18.404E+00
			113.50		17.944E+00
			114.00		17.944E+00
			114.50		17.484E+00
			115.00		17.484E+00
			115.50		17.024E+00
			116.00		17.024E+00
			116.50		16.564E+00
			117.00		16.564E+00
			117.50		16.104E+00
			118.00		16.104E+00
			118.50		15.643E+00
			119.00		15.643E+00
			119.50		15.183E+00
			120.00		15.183E+00
			120.50		15.183E+00
			121.00		14.723E+00
			121.50		14.723E+00
			122.00		14.263E+00
			122.50		14.263E+00
			123.00		14.263E+00
			123.50		13.803E+00
			124.00		13.803E+00
			124.50		13.803E+00
			125.00		13.343E+00
			125.50		13.343E+00
			126.00		13.343E+00
			126.50		12.883E+00
			127.00		12.883E+00
			127.50		12.883E+00
			128.00		12.883E+00
			128.50		12.423E+00
			129.00		12.423E+00
			129.50		12.423E+00
			130.00		11.963E+00
			130.50		11.963E+00
			131.00		11.963E+00
			131.50		11.963E+00
			132.00		11.502E+00
			132.50		11.502E+00
			133.00		11.502E+00
			133.50		11.502E+00
			134.00		11.502E+00
			134.50		11.042E+00
			135.00		11.042E+00
			135.50		11.042E+00
			136.00		11.042E+00
			136.50		10.582E+00
			137.00		10.582E+00
			137.50		10.582E+00
			138.00		10.582E+00
			138.50		10.122E+00
			139.00		10.122E+00
			139.50		10.122E+00
			140.00		10.122E+00
		END_DATA
	END_SCAN  1
	BEGIN_SCAN  2
		TASK_NAME=tba PDD Profiles
		PROGRAM=WaterTankScans
		COMMENT=Average
		MEAS_DATE=15-Mar-2022 16:26:13
		LINAC=MRIdian
		MODALITY=X
		ISOCENTER=900.00
		INPLANE_AXIS=Y
		CROSSPLANE_AXIS=X
		DEPTH_AXIS=Depth
		INPLANE_AXIS_DIR=TARGET_GUN
		CROSSPLANE_AXIS_DIR=LEFT_RIGHT
		DEPTH_AXIS_DIR=UP_DOWN
		ENERGY=6.00
		NOMINAL_DMAX=15.00
		SSD=850.00
		SCD=450.00
		WEDGE_ANGLE=0.00
		FIELD_INPLANE=199.00
		FIELD_CROSSPLANE=199.00
		FIELD_TYPE=RECTANGULAR
		GANTRY=0.00
		GANTRY_UPRIGHT_POSITION=0
		GANTRY_ROTATION=CW
		COLL_ANGLE=0.00
		COLL_OFFSET_INPLANE=0.00
		COLL_OFFSET_CROSSPLANE=0.00
		SCAN_DEVICE=BeamScan
		SCAN_DEVICE_SETUP=BARA_LEFT_RIGHT
		ELECTROMETER=BeamScan
		RANGE_FIELD=LOW
		RANGE_REFERENCE=MEDIUM
		DETECTOR=THIMBLE_CHAMBER
		DETECTOR_RADIUS=2.40
		DETECTOR_NAME=A28MR
		DETECTOR_SN=-
		DETECTOR_CALIBRATION=588000000.00
		DETECTOR_IS_CALIBRATED=0
		DETECTOR_REFERENCE=THIMBLE_CHAMBER
		DETECTOR_REFERENCE_RADIUS=2.75
		DETECTOR_REFERENCE_NAME=A28MR
		DETECTOR_REFERENCE_SN=—
		DETECTOR_REFERENCE_IS_CALIBRATED=0
		DETECTOR_REFERENCE_CALIBRATION=303000000.00
		DETECTOR_HV=300.0
		DETECTOR_REFERENCE_HV=300.0
		DETECTOR_ORIENTATION=HORIZONTAL
		FILTER=FFF
		SCAN_SPEED_PROFILE=10.00
		SCAN_PROF_SPEED_DEP=DEPTH
		SCAN_SPEED_PDD=0.00
		SCAN_PDD_SPEED_DEP=ENERGY
		DETECTOR_TYPE=A28MR
		REF_FIELD_DEPTH=50.00
		REF_FIELD_DEFINED=ISOCENTER
		REF_FIELD_INPLANE=100.00
		REF_FIELD_CROSSPLANE=100.00
		REF_SCAN_POSITIONS=-85.00;-84.00;-83.00;-82.00;-81.00;-80.00;-79.00;-78.00;-77.00;-76.00;-75.00;-74.00;-73.00;-72.00;-71.00;-70.00;-69.00;-68.00;-67.00;-66.00;-65.00;-64.00;-63.00;-62.00;-61.00;-60.00;-59.00;-58.00;-57.00;-56.00;-55.00;-54.00;-53.00;-52.00;-51.00;-50.00;-49.00;-48.00;-47.00;-46.00;-45.00;-44.00;-43.00;-42.00;-41.00;-40.00;-39.00;-38.00;-37.00;-36.00;-35.00;-34.00;-33.00;-32.00;-31.00;-30.00;-29.00;-28.00;-27.00;-26.00;-25.00;-24.00;-23.00;-22.00;-21.00;-20.00;-19.00;-18.00;-17.00;-16.00;-15.00;-14.00;-13.00;-12.00;-11.00;-10.00;-9.00;-8.00;-7.00;-6.00;-5.00;-4.00;-3.00;-2.00;-1.00;0.00;1.00;2.00;3.00;4.00;5.00;6.00;7.00;8.00;9.00;10.00;11.00;12.00;13.00;14.00;15.00;16.00;17.00;18.00;19.00;20.00;21.00;22.00;23.00;24.00;25.00;26.00;27.00;28.00;29.00;30.00;31.00;32.00;33.00;34.00;35.00;36.00;37.00;38.00;39.00;40.00;41.00;42.00;43.00;44.00;45.00;46.00;47.00;48.00;49.00;50.00;51.00;52.00;53.00;54.00;55.00;56.00;57.00;58.00;59.00;60.00;61.00;62.00;63.00;64.00;65.00;66.00;67.00;68.00;69.00;70.00;71.00;72.00;73.00;74.00;75.00;76.00;77.00;78.00;79.00;80.00;81.00;82.00;83.00;84.00;85.00;
		REF_OVERSCAN_FACTOR=1.00
		SCAN_CURVETYPE=CROSSPLANE_PROFILE
		SCAN_DEPTH=55.00
		SCAN_OFFAXIS_INPLANE=0.00
		SCAN_OFFAXIS_CROSSPLANE=0.00
		SCAN_ANGLE=0.00
		SCAN_DIAGONAL=NOT_DIAGONAL
		SCAN_DIRECTION=POSITIVE
		MEAS_MEDIUM=WATER
		MEAS_PRESET=MEAS_CONTINUOUS_REFERENCE_SCAN
		MEAS_TIME=0.100
		MEAS_UNIT=A.U.
		INCLINATION_ANGLE=0.00
		PRESSURE=1013.25
		TEMPERATURE=20.00
		NORM_TEMPERATURE=20.00
		CORRECTION_FACTOR=1.0000
		EXPECTED_MAX_DOSE_RATE=3.00
		EPOM_DEPTH_SHIFT=0.2
		EPOM_MODE=SHIFT_PROTOCOL
		CORRECTIONS=CAX_CORR;SMOOTHED_CORR;INTERPOLATED_CORR;SYMMETRY_CORR;ADD_CURVES_CORR;MODIFIED_CORR;
		BEGIN_DATA
			-150.00		11.963E+00
			-149.50		11.963E+00
			-149.00		11.963E+00
			-148.50		12.423E+00
			-148.00		12.423E+00
			-147.50		12.423E+00
			-147.00		12.423E+00
			-146.50		12.883E+00
			-146.00		12.883E+00
			-145.50		12.883E+00
			-145.00		12.883E+00
			-144.50		13.343E+00
			-144.00		13.343E+00
			-143.50		13.343E+00
			-143.00		13.803E+00
			-142.50		13.803E+00
			-142.00		13.803E+00
			-141.50		14.263E+00
			-141.00		14.263E+00
			-140.50		14.263E+00
			-140.00		14.263E+00
			-139.50		14.723E+00
			-139.00		14.723E+00
			-138.50		14.723E+00
			-138.00		15.183E+00
			-137.50		15.183E+00
			-137.00		15.183E+00
			-136.50		15.643E+00
			-136.00		15.643E+00
			-135.50		15.643E+00
			-135.00		16.104E+00
			-134.50		16.104E+00
			-134.00		16.564E+00
			-133.50		16.564E+00
			-133.00		16.564E+00
			-132.50		17.024E+00
			-132.00		17.024E+00
			-131.50		17.024E+00
			-131.00		17.484E+00
			-130.50		17.484E+00
			-130.00		17.944E+00
			-129.50		17.944E+00
			-129.00		18.404E+00
			-128.50		18.404E+00
			-128.00		18.864E+00
			-127.50		18.864E+00
			-127.00		19.324E+00
			-126.50		19.324E+00
			-126.00		19.784E+00
			-125.50		19.784E+00
			-125.00		20.244E+00
			-124.50		20.244E+00
			-124.00		20.704E+00
			-123.50		21.165E+00
			-123.00		21.165E+00
			-122.50		21.625E+00
			-122.00		22.085E+00
			-121.50		22.085E+00
			-121.00		22.545E+00
			-120.50		22.545E+00
			-120.00		23.005E+00
			-119.50		23.465E+00
			-119.00		23.925E+00
			-118.50		23.925E+00
			-118.00		24.385E+00
			-117.50		24.845E+00
			-117.00		25.306E+00
			-116.50		25.766E+00
			-116.00		26.226E+00
			-115.50		26.686E+00
			-115.00		27.146E+00
			-114.50		27.606E+00
			-114.00		28.066E+00
			-113.50		28.526E+00
			-113.00		28.986E+00
			-112.50		29.906E+00
			-112.00		30.367E+00
			-111.50		30.827E+00
			-111.00		31.747E+00
			-110.50		32.207E+00
			-110.00		33.127E+00
			-109.50		34.047E+00
			-109.00		34.968E+00
			-108.50		35.888E+00
			-108.00		36.808E+00
			-107.50		38.188E+00
			-107.00		40.029E+00
			-106.50		41.869E+00
			-106.00		44.170E+00
			-105.50		46.930E+00
			-105.00		50.611E+00
			-104.50		55.212E+00
			-104.00		61.653E+00
			-103.50		69.015E+00
			-103.00		78.677E+00
			-102.50		89.719E+00
			-102.00		102.60E+00
			-101.50		116.41E+00
			-101.00		131.13E+00
			-100.50		146.77E+00
			-100.00		162.42E+00
			-99.50		178.52E+00
			-99.00		194.16E+00
			-98.50		209.81E+00
			-98.00		224.53E+00
			-97.50		237.87E+00
			-97.00		250.29E+00
			-96.50		260.88E+00
			-96.00		269.62E+00
			-95.50		276.98E+00
			-95.00		283.42E+00
			-94.50		288.02E+00
			-94.00		292.16E+00
			-93.50		295.38E+00
			-93.00		298.60E+00
			-92.50		300.91E+00
			-92.00		303.21E+00
			-91.50		304.59E+00
			-91.00		306.43E+00
			-90.50		308.27E+00
			-90.00		309.65E+00
			-89.50		311.03E+00
			-89.00		312.41E+00
			-88.50		313.79E+00
			-88.00		315.17E+00
			-87.50		316.09E+00
			-87.00		317.47E+00
			-86.50		318.39E+00
			-86.00		319.77E+00
			-85.50		320.69E+00
			-85.00		321.61E+00
			-84.50		322.99E+00
			-84.00		323.91E+00
			-83.50		325.29E+00
			-83.00		326.21E+00
			-82.50		327.13E+00
			-82.00		328.05E+00
			-81.50		328.97E+00
			-81.00		330.35E+00
			-80.50		331.27E+00
			-80.00		332.19E+00
			-79.50		333.11E+00
			-79.00		334.03E+00
			-78.50		334.95E+00
			-78.00		335.87E+00
			-77.50		337.25E+00
			-77.00		338.17E+00
			-76.50		338.63E+00
			-76.00		339.55E+00
			-75.50		340.47E+00
			-75.00		341.39E+00
			-74.50		342.77E+00
			-74.00		343.69E+00
			-73.50		344.61E+00
			-73.00		345.54E+00
			-72.50		346.46E+00
			-72.00		346.92E+00
			-71.50		347.84E+00
			-71.00		348.76E+00
			-70.50		349.68E+00
			-70.00		350.60E+00
			-69.50		351.52E+00
			-69.00		352.44E+00
			-68.50		353.36E+00
			-68.00		354.28E+00
			-67.50		355.20E+00
			-67.00		355.66E+00
			-66.50		356.58E+00
			-66.00		357.50E+00
			-65.50		358.42E+00
			-65.00		359.34E+00
			-64.50		360.26E+00
			-64.00		360.72E+00
			-63.50		361.64E+00
			-63.00		362.56E+00
			-62.50		363.48E+00
			-62.00		364.40E+00
			-61.50		365.32E+00
			-61.00		366.24E+00
			-60.50		367.16E+00
			-60.00		367.62E+00
			-59.50		368.54E+00
			-59.00		369.46E+00
			-58.50		370.38E+00
			-58.00		370.84E+00
			-57.50		371.76E+00
			-57.00		372.68E+00
			-56.50		373.60E+00
			-56.00		374.52E+00
			-55.50		375.44E+00
			-55.00		376.36E+00
			-54.50		377.28E+00
			-54.00		377.74E+00
			-53.50		378.66E+00
			-53.00		379.58E+00
			-52.50		380.04E+00
			-52.00		380.96E+00
			-51.50		381.88E+00
			-51.00		382.80E+00
			-50.50		383.72E+00
			-50.00		384.64E+00
			-49.50		385.10E+00
			-49.00		386.02E+00
			-48.50		386.94E+00
			-48.00		387.86E+00
			-47.50		388.78E+00
			-47.00		389.70E+00
			-46.50		390.16E+00
			-46.00		391.08E+00
			-45.50		392.01E+00
			-45.00		392.93E+00
			-44.50		393.39E+00
			-44.00		394.31E+00
			-43.50		395.23E+00
			-43.00		396.15E+00
			-42.50		396.61E+00
			-42.00		397.53E+00
			-41.50		398.45E+00
			-41.00		398.91E+00
			-40.50		399.83E+00
			-40.00		400.29E+00
			-39.50		401.21E+00
			-39.00		401.67E+00
			-38.50		402.59E+00
			-38.00		403.51E+00
			-37.50		403.97E+00
			-37.00		404.89E+00
			-36.50		405.35E+00
			-36.00		406.27E+00
			-35.50		406.73E+00
			-35.00		407.65E+00
			-34.50		408.11E+00
			-34.00		409.03E+00
			-33.50		409.95E+00
			-33.00		410.41E+00
			-32.50		411.33E+00
			-32.00		411.79E+00
			-31.50		412.71E+00
			-31.00		413.17E+00
			-30.50		413.63E+00
			-30.00		414.55E+00
			-29.50		415.01E+00
			-29.00		415.93E+00
			-28.50		416.39E+00
			-28.00		417.31E+00
			-27.50		417.77E+00
			-27.00		418.23E+00
			-26.50		418.69E+00
			-26.00		419.61E+00
			-25.50		420.07E+00
			-25.00		420.53E+00
			-24.50		420.99E+00
			-24.00		421.45E+00
			-23.50		421.91E+00
			-23.00		422.37E+00
			-22.50		423.29E+00
			-22.00		423.75E+00
			-21.50		424.21E+00
			-21.00		424.67E+00
			-20.50		425.13E+00
			-20.00		426.05E+00
			-19.50		426.51E+00
			-19.00		426.97E+00
			-18.50		427.43E+00
			-18.00		427.89E+00
			-17.50		428.35E+00
			-17.00		428.81E+00
			-16.50		428.81E+00
			-16.00		429.27E+00
			-15.50		429.73E+00
			-15.00		430.19E+00
			-14.50		430.65E+00
			-14.00		431.11E+00
			-13.50		431.11E+00
			-13.00		431.57E+00
			-12.50		431.57E+00
			-12.00		432.03E+00
			-11.50		432.49E+00
			-11.00		432.95E+00
			-10.50		432.95E+00
			-10.00		433.41E+00
			-9.50		433.41E+00
			-9.00		433.87E+00
			-8.50		434.33E+00
			-8.00		434.33E+00
			-7.50		434.79E+00
			-7.00		434.79E+00
			-6.50		435.25E+00
			-6.00		435.25E+00
			-5.50		435.71E+00
			-5.00		435.71E+00
			-4.50		435.71E+00
			-4.00		435.71E+00
			-3.50		436.17E+00
			-3.00		436.17E+00
			-2.50		436.17E+00
			-2.00		436.17E+00
			-1.50		436.17E+00
			-1.00		436.17E+00
			-0.50		436.17E+00
			0.00		436.17E+00
			0.50		436.17E+00
			1.00		436.17E+00
			1.50		436.17E+00
			2.00		436.17E+00
			2.50		436.17E+00
			3.00		436.17E+00
			3.50		436.17E+00
			4.00		435.71E+00
			4.50		435.71E+00
			5.00		435.71E+00
			5.50		435.71E+00
			6.00		435.25E+00
			6.50		435.25E+00
			7.00		434.79E+00
			7.50		434.79E+00
			8.00		434.33E+00
			8.50		434.33E+00
			9.00		433.87E+00
			9.50		433.41E+00
			10.00		433.41E+00
			10.50		432.95E+00
			11.00		432.95E+00
			11.50		432.49E+00
			12.00		432.03E+00
			12.50		431.57E+00
			13.00		431.57E+00
			13.50		431.11E+00
			14.00		431.11E+00
			14.50		430.65E+00
			15.00		430.19E+00
			15.50		429.73E+00
			16.00		429.27E+00
			16.50		428.81E+00
			17.00		428.81E+00
			17.50		428.35E+00
			18.00		427.89E+00
			18.50		427.43E+00
			19.00		426.97E+00
			19.50		426.51E+00
			20.00		426.05E+00
			20.50		425.13E+00
			21.00		424.67E+00
			21.50		424.21E+00
			22.00		423.75E+00
			22.50		423.29E+00
			23.00		422.37E+00
			23.50		421.91E+00
			24.00		421.45E+00
			24.50		420.99E+00
			25.00		420.53E+00
			25.50		420.07E+00
			26.00		419.61E+00
			26.50		418.69E+00
			27.00		418.23E+00
			27.50		417.77E+00
			28.00		417.31E+00
			28.50		416.39E+00
			29.00		415.93E+00
			29.50		415.01E+00
			30.00		414.55E+00
			30.50		413.63E+00
			31.00		413.17E+00
			31.50		412.71E+00
			32.00		411.79E+00
			32.50		411.33E+00
			33.00		410.41E+00
			33.50		409.95E+00
			34.00		409.03E+00
			34.50		408.11E+00
			35.00		407.65E+00
			35.50		406.73E+00
			36.00		406.27E+00
			36.50		405.35E+00
			37.00		404.89E+00
			37.50		403.97E+00
			38.00		403.51E+00
			38.50		402.59E+00
			39.00		401.67E+00
			39.50		401.21E+00
			40.00		400.29E+00
			40.50		399.83E+00
			41.00		398.91E+00
			41.50		398.45E+00
			42.00		397.53E+00
			42.50		396.61E+00
			43.00		396.15E+00
			43.50		395.23E+00
			44.00		394.31E+00
			44.50		393.39E+00
			45.00		392.93E+00
			45.50		392.01E+00
			46.00		391.08E+00
			46.50		390.16E+00
			47.00		389.70E+00
			47.50		388.78E+00
			48.00		387.86E+00
			48.50		386.94E+00
			49.00		386.02E+00
			49.50		385.10E+00
			50.00		384.64E+00
			50.50		383.72E+00
			51.00		382.80E+00
			51.50		381.88E+00
			52.00		380.96E+00
			52.50		380.04E+00
			53.00		379.58E+00
			53.50		378.66E+00
			54.00		377.74E+00
			54.50		377.28E+00
			55.00		376.36E+00
			55.50		375.44E+00
			56.00		374.52E+00
			56.50		373.60E+00
			57.00		372.68E+00
			57.50		371.76E+00
			58.00		370.84E+00
			58.50		370.38E+00
			59.00		369.46E+00
			59.50		368.54E+00
			60.00		367.62E+00
			60.50		367.16E+00
			61.00		366.24E+00
			61.50		365.32E+00
			62.00		364.40E+00
			62.50		363.48E+00
			63.00		362.56E+00
			63.50		361.64E+00
			64.00		360.72E+00
			64.50		360.26E+00
			65.00		359.34E+00
			65.50		358.42E+00
			66.00		357.50E+00
			66.50		356.58E+00
			67.00		355.66E+00
			67.50		355.20E+00
			68.00		354.28E+00
			68.50		353.36E+00
			69.00		352.44E+00
			69.50		351.52E+00
			70.00		350.60E+00
			70.50		349.68E+00
			71.00		348.76E+00
			71.50		347.84E+00
			72.00		346.92E+00
			72.50		346.46E+00
			73.00		345.54E+00
			73.50		344.61E+00
			74.00		343.69E+00
			74.50		342.77E+00
			75.00		341.39E+00
			75.50		340.47E+00
			76.00		339.55E+00
			76.50		338.63E+00
			77.00		338.17E+00
			77.50		337.25E+00
			78.00		335.87E+00
			78.50		334.95E+00
			79.00		334.03E+00
			79.50		333.11E+00
			80.00		332.19E+00
			80.50		331.27E+00
			81.00		330.35E+00
			81.50		328.97E+00
			82.00		328.05E+00
			82.50		327.13E+00
			83.00		326.21E+00
			83.50		325.29E+00
			84.00		323.91E+00
			84.50		322.99E+00
			85.00		321.61E+00
			85.50		320.69E+00
			86.00		319.77E+00
			86.50		318.39E+00
			87.00		317.47E+00
			87.50		316.09E+00
			88.00		315.17E+00
			88.50		313.79E+00
			89.00		312.41E+00
			89.50		311.03E+00
			90.00		309.65E+00
			90.50		308.27E+00
			91.00		306.43E+00
			91.50		304.59E+00
			92.00		303.21E+00
			92.50		300.91E+00
			93.00		298.60E+00
			93.50		295.38E+00
			94.00		292.16E+00
			94.50		288.02E+00
			95.00		283.42E+00
			95.50		276.98E+00
			96.00		269.62E+00
			96.50		260.88E+00
			97.00		250.29E+00
			97.50		237.87E+00
			98.00		224.53E+00
			98.50		209.81E+00
			99.00		194.16E+00
			99.50		178.52E+00
			100.00		162.42E+00
			100.50		146.77E+00
			101.00		131.13E+00
			101.50		116.41E+00
			102.00		102.60E+00
			102.50		89.719E+00
			103.00		78.677E+00
			103.50		69.015E+00
			104.00		61.653E+00
			104.50		55.212E+00
			105.00		50.611E+00
			105.50		46.930E+00
			106.00		44.170E+00
			106.50		41.869E+00
			107.00		40.029E+00
			107.50		38.188E+00
			108.00		36.808E+00
			108.50		35.888E+00
			109.00		34.968E+00
			109.50		34.047E+00
			110.00		33.127E+00
